timestamp,rainfall_mylapore,rainfall_redhills,rainfall_tharamani,rainfall_mean
01-02-2023 23:00,0.5,,,0.5
01-05-2023 04:00,,,7.5,7.5
01-05-2023 05:00,,,0.5,0.5
01-05-2023 07:00,1.0,,,1.0
01-05-2023 08:00,1.0,,,1.0
01-05-2023 09:00,0.5,,,0.5
01-05-2023 10:00,0.5,,0.5,0.5
01-05-2023 11:00,0.5,,8.0,4.25
01-05-2023 12:00,0.5,,,0.5
01-05-2023 13:00,0.5,,0.5,0.5
01-05-2023 14:00,0.5,,,0.5
01-05-2023 15:00,0.5,,,0.5
01-05-2023 16:00,0.5,,,0.5
01-05-2023 18:00,0.5,,,0.5
01-05-2023 20:00,0.5,,,0.5
01-05-2023 21:00,,0.5,,0.5
01-05-2023 22:00,0.5,0.5,,0.5
01-05-2023 23:00,,1.0,,1.0
01-07-2023 20:00,,4.0,,4.0
01-09-2022 03:00,,0.5,,0.5
01-09-2022 10:00,,0.5,0.5,0.5
01-09-2022 11:00,,,4.0,4.0
01-09-2022 13:00,,,1.0,1.0
01-09-2022 14:00,,,11.5,11.5
01-09-2022 15:00,,,2.5,2.5
01-09-2022 16:00,,0.5,,0.5
01-09-2024 14:00,,,1.5,1.5
01-09-2025 00:00,7.5,0.5,1.5,3.1666666666666665
01-09-2025 01:00,1.5,,0.5,1.0
01-09-2025 02:00,1.0,,0.5,0.75
01-10-2021 20:00,1.0,,,1.0
01-11-2021 05:00,2.0,,,2.0
01-11-2021 06:00,0.5,,,0.5
01-11-2021 07:00,0.5,,,0.5
01-11-2021 08:00,0.5,,,0.5
01-11-2021 09:00,0.5,,,0.5
01-11-2021 12:00,2.0,,,2.0
01-11-2021 18:00,6.0,,,6.0
01-11-2021 19:00,0.5,,,0.5
01-11-2021 21:00,0.5,,,0.5
01-11-2021 22:00,2.5,,,2.5
01-11-2021 23:00,3.5,,,3.5
01-11-2022 00:00,,,5.0,5.0
01-11-2022 01:00,,,4.0,4.0
01-11-2022 02:00,,,3.5,3.5
01-11-2022 03:00,,,0.5,0.5
01-11-2022 05:00,,,1.0,1.0
01-11-2022 06:00,,,3.5,3.5
01-11-2022 07:00,,,1.5,1.5
01-11-2022 08:00,,,2.5,2.5
01-11-2022 09:00,,,13.5,13.5
01-11-2022 10:00,,,9.5,9.5
01-11-2022 11:00,,,5.0,5.0
01-11-2022 12:00,,,3.5,3.5
01-11-2022 13:00,2.0,,16.5,9.25
01-11-2022 14:00,24.5,,9.0,16.75
01-11-2022 15:00,4.0,,2.0,3.0
01-11-2022 16:00,,,1.5,1.5
01-11-2022 17:00,,,0.5,0.5
01-11-2022 20:00,2.5,,,2.5
01-11-2022 21:00,52.0,,,52.0
01-11-2022 22:00,113.5,,,113.5
01-11-2022 23:00,88.5,,4.5,46.5
01-11-2023 13:00,0.5,,,0.5
01-11-2023 14:00,2.5,,2.5,2.5
01-11-2023 17:00,1.5,,0.5,1.0
01-11-2024 01:00,,9.5,,9.5
01-11-2024 15:00,,3.0,,3.0
01-12-2022 02:00,1.0,,5.0,3.0
01-12-2022 05:00,,,1.0,1.0
01-12-2023 01:00,,,2.5,2.5
01-12-2023 02:00,,,0.5,0.5
01-12-2024 00:00,,,0.5,0.5
01-12-2024 13:00,,,0.5,0.5
01-12-2024 14:00,1.5,,,1.5
01-12-2024 19:00,1.0,,,1.0
01-12-2024 22:00,0.5,,,0.5
01-12-2024 23:00,,,0.5,0.5
01-12-2025 00:00,0.5,,0.5,0.5
01-12-2025 01:00,0.5,,0.5,0.5
01-12-2025 02:00,1.5,,1.5,1.5
01-12-2025 03:00,0.5,,1.0,0.75
01-12-2025 04:00,0.5,,,0.5
01-12-2025 05:00,1.0,,0.5,0.75
01-12-2025 06:00,,,0.5,0.5
01-12-2025 07:00,0.5,,0.5,0.5
01-12-2025 08:00,2.0,,1.0,1.5
01-12-2025 09:00,18.0,,9.5,13.75
01-12-2025 10:00,7.5,,7.0,7.25
01-12-2025 11:00,10.5,,,10.5
01-12-2025 12:00,10.5,,18.0,14.25
01-12-2025 13:00,5.5,,4.5,5.0
01-12-2025 14:00,11.0,,5.0,8.0
01-12-2025 15:00,11.5,,13.5,12.5
01-12-2025 16:00,14.0,,8.0,11.0
01-12-2025 17:00,,,0.5,0.5
01-12-2025 19:00,2.0,,0.5,1.25
01-12-2025 20:00,16.0,,21.5,18.75
01-12-2025 21:00,1.5,,1.0,1.25
01-12-2025 22:00,0.5,,0.5,0.5
01-12-2025 23:00,1.5,,1.5,1.5
02-02-2023 00:00,1.0,,,1.0
02-05-2023 00:00,0.5,,3.5,2.0
02-05-2023 01:00,,0.5,3.5,2.0
02-05-2023 02:00,0.5,,,0.5
02-05-2023 03:00,0.5,,4.0,2.25
02-05-2023 04:00,,,12.0,12.0
02-05-2023 05:00,0.5,0.5,7.5,2.8333333333333335
02-05-2023 06:00,,,0.5,0.5
02-05-2023 07:00,0.5,0.5,0.5,0.5
02-05-2023 08:00,0.5,0.5,,0.5
02-05-2023 10:00,0.5,,,0.5
02-05-2023 11:00,,0.5,,0.5
02-05-2023 12:00,0.5,2.0,,1.25
02-05-2023 13:00,,1.5,,1.5
02-05-2023 14:00,0.5,1.0,,0.75
02-05-2023 15:00,,0.5,,0.5
02-05-2023 16:00,0.5,0.5,,0.5
02-05-2023 17:00,,0.5,,0.5
02-05-2023 18:00,0.5,,,0.5
02-05-2023 20:00,0.5,0.5,,0.5
02-05-2023 23:00,0.5,,0.5,0.5
02-06-2024 00:00,,,1.5,1.5
02-06-2024 01:00,,,0.5,0.5
02-08-2024 22:00,,,1.0,1.0
02-08-2024 23:00,,,0.5,0.5
02-09-2022 00:00,,0.5,,0.5
02-09-2022 06:00,,0.5,,0.5
02-09-2022 08:00,,0.5,,0.5
02-09-2022 09:00,,0.5,,0.5
02-09-2022 10:00,,0.5,,0.5
02-09-2022 13:00,,0.5,,0.5
02-09-2022 17:00,,0.5,,0.5
02-09-2022 18:00,,0.5,,0.5
02-09-2022 20:00,,0.5,,0.5
02-09-2022 21:00,,0.5,,0.5
02-09-2023 19:00,1.0,,17.0,9.0
02-09-2023 20:00,,,0.5,0.5
02-09-2025 22:00,0.5,,0.5,0.5
02-09-2025 23:00,1.5,,,1.5
02-10-2021 03:00,0.5,,,0.5
02-10-2021 06:00,4.0,,,4.0
02-10-2021 09:00,,,0.5,0.5
02-10-2022 04:00,,0.5,,0.5
02-10-2022 15:00,,0.5,,0.5
02-10-2024 23:00,,0.5,,0.5
02-10-2025 03:00,0.5,,,0.5
02-11-2021 00:00,1.0,,,1.0
02-11-2021 01:00,3.0,,,3.0
02-11-2021 02:00,1.0,,,1.0
02-11-2021 03:00,2.0,,,2.0
02-11-2021 04:00,5.0,,,5.0
02-11-2021 05:00,0.5,,,0.5
02-11-2021 08:00,13.0,,,13.0
02-11-2021 09:00,0.5,,,0.5
02-11-2021 18:00,1.0,,,1.0
02-11-2022 00:00,,,9.0,9.0
02-11-2022 01:00,32.0,,13.5,22.75
02-11-2022 02:00,119.5,,1.5,60.5
02-11-2022 03:00,,,13.0,13.0
02-11-2022 04:00,184.5,,3.0,93.75
02-11-2022 05:00,769.5,,,769.5
02-11-2022 06:00,1412.5,,,1412.5
02-11-2022 07:00,135.5,,2.5,69.0
02-11-2022 08:00,79.5,,0.5,40.0
02-11-2022 09:00,170.5,,,170.5
02-11-2022 10:00,4.0,,,4.0
02-11-2022 11:00,0.5,,2.5,1.5
02-11-2022 12:00,3.0,,2.0,2.5
02-11-2022 18:00,6.0,,9.5,7.75
02-11-2022 20:00,,,0.5,0.5
02-11-2022 23:00,2.0,,9.5,5.75
02-11-2023 01:00,,,1.0,1.0
02-11-2023 10:00,1.0,,,1.0
02-11-2023 11:00,1.5,,,1.5
02-11-2024 04:00,,,1.5,1.5
02-11-2024 08:00,,,1.0,1.0
02-11-2024 09:00,0.5,,0.5,0.5
02-11-2025 17:00,,1.0,,1.0
02-12-2023 07:00,3.0,,1.0,2.0
02-12-2023 09:00,,,0.5,0.5
02-12-2023 10:00,,,1.0,1.0
02-12-2023 12:00,1.5,,0.5,1.0
02-12-2023 17:00,3.5,,4.5,4.0
02-12-2023 19:00,12.0,,13.0,12.5
02-12-2023 20:00,5.0,,8.5,6.75
02-12-2023 21:00,,,0.5,0.5
02-12-2023 22:00,1.0,,0.5,0.75
02-12-2024 00:00,0.5,,,0.5
02-12-2024 02:00,,,0.5,0.5
02-12-2024 09:00,,1.0,,1.0
02-12-2024 13:00,,3.5,,3.5
02-12-2025 00:00,3.5,,3.0,3.25
02-12-2025 01:00,2.5,,2.0,2.25
02-12-2025 02:00,3.5,,11.0,7.25
02-12-2025 03:00,18.5,,14.5,16.5
02-12-2025 04:00,15.5,,5.0,10.25
02-12-2025 05:00,0.5,,0.5,0.5
02-12-2025 06:00,0.5,,,0.5
02-12-2025 07:00,,,0.5,0.5
02-12-2025 08:00,,,1.0,1.0
02-12-2025 09:00,0.5,,0.5,0.5
02-12-2025 10:00,2.5,,7.5,5.0
02-12-2025 11:00,4.0,,3.5,3.75
02-12-2025 12:00,2.5,,4.0,3.25
02-12-2025 14:00,,,0.5,0.5
02-12-2025 15:00,1.5,,1.0,1.25
02-12-2025 16:00,1.0,,,1.0
02-12-2025 18:00,0.5,,,0.5
02-12-2025 19:00,0.5,,2.5,1.5
02-12-2025 20:00,,,1.5,1.5
02-12-2025 21:00,0.5,,1.5,1.0
02-12-2025 23:00,0.5,,0.5,0.5
03-01-2024 11:00,,,1.0,1.0
03-05-2023 01:00,0.5,,,0.5
03-05-2023 02:00,,,0.5,0.5
03-05-2023 04:00,0.5,,,0.5
03-05-2023 07:00,0.5,,,0.5
03-05-2023 11:00,0.5,,,0.5
03-05-2023 14:00,0.5,,,0.5
03-05-2023 17:00,0.5,,,0.5
03-05-2023 21:00,0.5,,,0.5
03-06-2025 20:00,,,6.5,6.5
03-07-2022 23:00,,2.0,,2.0
03-07-2023 00:00,,,3.0,3.0
03-07-2023 01:00,,,0.5,0.5
03-07-2023 02:00,,,0.5,0.5
03-07-2023 03:00,1.0,1.5,0.5,1.0
03-07-2023 04:00,0.5,0.5,0.5,0.5
03-07-2023 05:00,0.5,,,0.5
03-07-2023 06:00,0.5,,0.5,0.5
03-07-2023 09:00,0.5,,,0.5
03-07-2023 13:00,0.5,,,0.5
03-07-2024 22:00,40.5,,27.5,34.0
03-07-2024 23:00,3.5,,2.5,3.0
03-08-2022 06:00,,0.5,,0.5
03-08-2022 07:00,,0.5,2.0,1.25
03-08-2022 08:00,,0.5,0.5,0.5
03-08-2022 09:00,,0.5,1.0,0.75
03-08-2022 10:00,,0.5,1.0,0.75
03-08-2022 11:00,0.5,,,0.5
03-08-2022 15:00,,,0.5,0.5
03-08-2024 23:00,,,13.5,13.5
03-09-2021 15:00,0.5,,,0.5
03-09-2021 16:00,,,0.5,0.5
03-09-2021 17:00,,,1.0,1.0
03-09-2022 00:00,,0.5,,0.5
03-09-2022 02:00,,0.5,,0.5
03-09-2022 05:00,,0.5,,0.5
03-09-2022 09:00,,0.5,,0.5
03-09-2022 13:00,,0.5,,0.5
03-09-2022 17:00,,0.5,,0.5
03-09-2022 21:00,,0.5,,0.5
03-09-2023 17:00,29.0,4.5,0.5,11.333333333333334
03-09-2023 18:00,2.0,3.5,4.5,3.3333333333333335
03-09-2023 19:00,,,3.5,3.5
03-09-2023 20:00,,,0.5,0.5
03-09-2023 21:00,1.0,,8.5,4.75
03-09-2024 01:00,9.5,,,9.5
03-09-2024 02:00,17.5,,,17.5
03-09-2024 07:00,0.5,,,0.5
03-09-2024 08:00,,,0.5,0.5
03-09-2024 21:00,1.5,,,1.5
03-09-2024 22:00,2.5,,1.5,2.0
03-09-2024 23:00,2.0,,0.5,1.25
03-10-2021 06:00,1.0,,,1.0
03-10-2021 13:00,1.0,,,1.0
03-10-2021 19:00,1.5,,,1.5
03-10-2022 14:00,,0.5,,0.5
03-10-2023 23:00,,,1.0,1.0
03-10-2024 16:00,1.5,0.5,7.5,3.1666666666666665
03-10-2024 17:00,,,0.5,0.5
03-10-2025 00:00,3.0,,0.5,1.75
03-10-2025 02:00,4.0,4.0,25.5,11.166666666666666
03-10-2025 03:00,,,2.5,2.5
03-10-2025 04:00,0.5,,2.5,1.5
03-10-2025 06:00,0.5,,,0.5
03-10-2025 07:00,,,0.5,0.5
03-11-2021 00:00,0.5,,,0.5
03-11-2021 03:00,1.0,,,1.0
03-11-2021 04:00,12.0,,,12.0
03-11-2021 05:00,4.5,,,4.5
03-11-2021 06:00,4.0,,,4.0
03-11-2021 07:00,5.0,,,5.0
03-11-2021 08:00,1.5,,,1.5
03-11-2021 09:00,0.5,,,0.5
03-11-2022 00:00,,,3.0,3.0
03-11-2022 01:00,,,0.5,0.5
03-11-2022 13:00,,1.0,,1.0
03-11-2022 14:00,,14.5,,14.5
03-11-2022 15:00,,5.5,,5.5
03-11-2022 17:00,9.0,0.5,11.0,6.833333333333333
03-11-2022 18:00,8.5,4.5,6.0,6.333333333333333
03-11-2022 19:00,5.0,0.5,1.5,2.3333333333333335
03-11-2022 20:00,1.5,,,1.5
03-11-2022 21:00,11.0,,,11.0
03-11-2022 22:00,10.0,,,10.0
03-11-2022 23:00,3.5,,,3.5
03-11-2023 02:00,3.0,,,3.0
03-11-2023 03:00,,,1.0,1.0
03-11-2023 04:00,1.5,,7.0,4.25
03-11-2023 09:00,,,0.5,0.5
03-11-2023 10:00,3.0,1.0,15.5,6.5
03-11-2023 11:00,,,6.0,6.0
03-11-2023 12:00,,,7.5,7.5
03-11-2023 13:00,2.0,,,2.0
03-11-2023 14:00,0.5,,,0.5
03-11-2023 15:00,,,0.5,0.5
03-11-2023 16:00,,,2.0,2.0
03-11-2024 05:00,,,6.0,6.0
03-11-2024 06:00,7.0,,,7.0
03-11-2024 07:00,0.5,,,0.5
03-12-2023 00:00,2.5,,4.5,3.5
03-12-2023 01:00,5.0,,1.0,3.0
03-12-2023 02:00,8.5,,,8.5
03-12-2023 03:00,3.0,,3.0,3.0
03-12-2023 04:00,3.0,,4.5,3.75
03-12-2023 05:00,2.0,,1.0,1.5
03-12-2023 06:00,2.5,,4.5,3.5
03-12-2023 08:00,,,0.5,0.5
03-12-2023 09:00,,,0.5,0.5
03-12-2023 10:00,1.0,,4.0,2.5
03-12-2023 12:00,1.5,,2.5,2.0
03-12-2023 13:00,,,0.5,0.5
03-12-2023 14:00,,,0.5,0.5
03-12-2023 15:00,4.5,,7.0,5.75
03-12-2023 16:00,4.0,,2.5,3.25
03-12-2023 17:00,0.5,,4.5,2.5
03-12-2023 18:00,5.5,,10.0,7.75
03-12-2023 19:00,1.5,,0.5,1.0
03-12-2023 20:00,4.0,,5.0,4.5
03-12-2023 21:00,3.5,,5.0,4.25
03-12-2023 22:00,6.5,,7.0,6.75
03-12-2023 23:00,9.0,,8.0,8.5
03-12-2025 00:00,,,0.5,0.5
03-12-2025 01:00,0.5,,,0.5
03-12-2025 02:00,1.0,,1.5,1.25
03-12-2025 03:00,1.5,,1.0,1.25
03-12-2025 04:00,1.5,,13.0,7.25
03-12-2025 05:00,1.5,,0.5,1.0
03-12-2025 06:00,1.5,,0.5,1.0
03-12-2025 07:00,1.0,,0.5,0.75
03-12-2025 08:00,,,1.5,1.5
03-12-2025 09:00,0.5,,1.0,0.75
03-12-2025 10:00,,,4.0,4.0
03-12-2025 11:00,0.5,,,0.5
03-12-2025 13:00,,,1.0,1.0
03-12-2025 15:00,0.5,,,0.5
03-12-2025 16:00,,,0.5,0.5
03-12-2025 17:00,,,0.5,0.5
03-12-2025 18:00,,,4.0,4.0
03-12-2025 19:00,0.5,,1.0,0.75
03-12-2025 20:00,0.5,,2.5,1.5
03-12-2025 21:00,1.0,,1.5,1.25
03-12-2025 22:00,,,0.5,0.5
03-12-2025 23:00,0.5,,,0.5
04-01-2024 00:00,,,0.5,0.5
04-01-2024 01:00,,,0.5,0.5
04-01-2024 06:00,,,0.5,0.5
04-01-2024 16:00,1.0,,0.5,0.75
04-01-2024 17:00,2.5,,2.0,2.25
04-01-2024 18:00,,,1.0,1.0
04-03-2022 14:00,,3.0,,3.0
04-05-2023 01:00,0.5,,,0.5
04-05-2023 05:00,0.5,0.5,,0.5
04-05-2023 10:00,0.5,,,0.5
04-05-2023 14:00,0.5,,,0.5
04-05-2023 18:00,0.5,,,0.5
04-05-2025 17:00,,,5.5,5.5
04-05-2025 20:00,,,0.5,0.5
04-05-2025 21:00,,,1.0,1.0
04-06-2024 19:00,6.5,,3.5,5.0
04-06-2024 20:00,,,0.5,0.5
04-07-2022 00:00,1.5,8.5,8.5,6.166666666666667
04-07-2022 01:00,0.5,,0.5,0.5
04-07-2022 02:00,0.5,,,0.5
04-07-2022 03:00,0.5,,,0.5
04-07-2024 00:00,2.0,,1.5,1.75
04-08-2022 22:00,,9.5,1.5,5.5
04-08-2022 23:00,,1.0,,1.0
04-08-2023 00:00,,,1.0,1.0
04-08-2023 18:00,,4.0,,4.0
04-08-2024 00:00,1.0,,3.0,2.0
04-08-2024 01:00,0.5,,1.0,0.75
04-08-2024 18:00,6.5,,22.5,14.5
04-08-2024 19:00,5.5,,1.5,3.5
04-08-2024 21:00,,,0.5,0.5
04-09-2021 03:00,1.5,,,1.5
04-09-2021 07:00,0.5,,,0.5
04-09-2021 13:00,0.5,,,0.5
04-09-2021 18:00,1.5,,,1.5
04-09-2021 19:00,,,0.5,0.5
04-09-2022 00:00,,0.5,,0.5
04-09-2022 03:00,,0.5,,0.5
04-09-2022 06:00,,0.5,,0.5
04-09-2022 08:00,,1.0,,1.0
04-09-2022 09:00,,1.0,,1.0
04-09-2022 10:00,,1.5,,1.5
04-09-2022 11:00,,0.5,,0.5
04-09-2022 12:00,,1.0,,1.0
04-09-2022 14:00,,0.5,,0.5
04-09-2022 15:00,,0.5,,0.5
04-09-2022 16:00,,1.0,,1.0
04-09-2022 17:00,,1.0,,1.0
04-09-2022 18:00,,1.0,,1.0
04-09-2022 19:00,,1.0,,1.0
04-09-2022 20:00,,1.0,,1.0
04-09-2022 21:00,,1.0,,1.0
04-09-2022 22:00,,1.0,,1.0
04-09-2022 23:00,,1.0,,1.0
04-09-2023 00:00,,,0.5,0.5
04-09-2023 02:00,0.5,,,0.5
04-09-2023 19:00,,0.5,,0.5
04-09-2024 00:00,1.0,,,1.0
04-09-2025 00:00,,,1.0,1.0
04-09-2025 01:00,,0.5,,0.5
04-10-2022 04:00,,0.5,,0.5
04-10-2022 18:00,,0.5,,0.5
04-10-2025 03:00,,,0.5,0.5
04-10-2025 10:00,,0.5,,0.5
04-11-2021 01:00,5.0,,,5.0
04-11-2021 03:00,23.5,,,23.5
04-11-2021 04:00,1.5,,,1.5
04-11-2021 05:00,3.5,,,3.5
04-11-2021 06:00,6.5,,,6.5
04-11-2021 07:00,2.0,,,2.0
04-11-2021 08:00,1.0,,,1.0
04-11-2021 11:00,0.5,,,0.5
04-11-2021 15:00,0.5,,,0.5
04-11-2022 00:00,2.0,,,2.0
04-11-2022 01:00,0.5,,1.5,1.0
04-11-2022 03:00,2.0,,1.5,1.75
04-11-2022 05:00,,,0.5,0.5
04-11-2022 10:00,,0.5,,0.5
04-11-2022 11:00,,2.0,,2.0
04-11-2022 12:00,,3.0,,3.0
04-11-2022 13:00,,4.0,,4.0
04-11-2022 14:00,,2.0,,2.0
04-11-2022 19:00,1.0,,,1.0
04-11-2023 01:00,,,4.5,4.5
04-11-2023 04:00,5.0,,6.5,5.75
04-11-2023 07:00,20.5,,5.0,12.75
04-11-2023 18:00,,,4.0,4.0
04-11-2024 05:00,0.5,,,0.5
04-11-2024 06:00,1.0,,6.5,3.75
04-11-2024 07:00,0.5,,,0.5
04-11-2025 18:00,,,13.5,13.5
04-11-2025 19:00,,2.0,,2.0
04-12-2022 04:00,0.5,,1.0,0.75
04-12-2022 05:00,,,2.5,2.5
04-12-2022 15:00,,1.5,,1.5
04-12-2022 21:00,,0.5,,0.5
04-12-2023 00:00,17.5,,15.0,16.25
04-12-2023 01:00,3.5,,7.5,5.5
04-12-2023 02:00,5.5,,7.0,6.25
04-12-2023 03:00,11.5,2.0,8.0,7.166666666666667
04-12-2023 04:00,21.5,4.0,21.5,15.666666666666666
04-12-2023 05:00,38.0,9.0,,23.5
04-12-2023 06:00,8.0,4.0,,6.0
04-12-2023 07:00,14.5,1.0,13.0,9.5
04-12-2023 08:00,31.0,3.0,27.0,20.333333333333332
04-12-2023 09:00,29.5,3.0,22.0,18.166666666666668
04-12-2023 10:00,39.5,7.5,33.5,26.833333333333332
04-12-2023 11:00,25.5,7.0,22.5,18.333333333333332
04-12-2023 12:00,8.0,4.5,14.0,8.833333333333334
04-12-2023 13:00,5.5,2.0,1.0,2.8333333333333335
04-12-2023 14:00,13.0,2.0,20.5,11.833333333333334
04-12-2023 15:00,21.0,1.0,22.0,14.666666666666666
04-12-2023 16:00,5.0,2.0,7.0,4.666666666666667
04-12-2023 17:00,8.0,1.0,26.5,11.833333333333334
04-12-2023 18:00,18.5,,8.0,13.25
04-12-2023 19:00,16.5,1.0,7.5,8.333333333333334
04-12-2023 20:00,20.0,,31.0,25.5
04-12-2024 08:00,,0.5,,0.5
04-12-2024 20:00,0.5,,1.0,0.75
04-12-2024 21:00,2.0,0.5,,1.25
04-12-2024 23:00,,1.5,,1.5
04-12-2025 00:00,0.5,,,0.5
04-12-2025 01:00,0.5,,,0.5
04-12-2025 07:00,,,0.5,0.5
04-12-2025 08:00,,,0.5,0.5
04-12-2025 10:00,0.5,,,0.5
04-12-2025 12:00,,,4.5,4.5
04-12-2025 13:00,,,6.5,6.5
04-12-2025 14:00,,,0.5,0.5
04-12-2025 18:00,0.5,,,0.5
04-12-2025 23:00,,,0.5,0.5
05-01-2024 07:00,,,0.5,0.5
05-01-2024 12:00,,,17.5,17.5
05-01-2024 16:00,,,0.5,0.5
05-01-2025 10:00,,,0.5,0.5
05-05-2023 00:00,0.5,,,0.5
05-05-2023 07:00,0.5,,,0.5
05-05-2023 12:00,0.5,,,0.5
05-05-2023 19:00,0.5,,,0.5
05-06-2024 16:00,47.0,,9.0,28.0
05-06-2024 17:00,6.5,,4.0,5.25
05-06-2024 19:00,,,0.5,0.5
05-06-2024 22:00,,,0.5,0.5
05-07-2022 18:00,,2.5,,2.5
05-07-2022 19:00,0.5,2.0,3.0,1.8333333333333333
05-07-2022 20:00,,,0.5,0.5
05-07-2022 22:00,,0.5,,0.5
05-07-2024 23:00,7.0,,5.5,6.25
05-08-2024 01:00,2.0,,,2.0
05-08-2024 02:00,10.5,,3.5,7.0
05-08-2024 03:00,1.0,,10.0,5.5
05-08-2024 04:00,14.0,,18.5,16.25
05-08-2024 05:00,17.0,,8.0,12.5
05-08-2024 06:00,17.0,,4.5,10.75
05-08-2024 07:00,4.5,,2.0,3.25
05-08-2024 08:00,,,1.5,1.5
05-09-2021 17:00,10.0,,31.5,20.75
05-09-2021 18:00,0.5,,,0.5
05-09-2021 19:00,,,0.5,0.5
05-09-2022 00:00,,0.5,,0.5
05-09-2022 01:00,,1.0,,1.0
05-09-2022 02:00,,1.0,,1.0
05-09-2022 03:00,,0.5,,0.5
05-09-2022 04:00,,3.0,,3.0
05-09-2022 05:00,,8.5,,8.5
05-09-2022 06:00,,3.5,,3.5
05-09-2025 00:00,,,0.5,0.5
05-09-2025 02:00,5.0,,1.0,3.0
05-09-2025 03:00,,,5.5,5.5
05-09-2025 04:00,,,0.5,0.5
05-09-2025 07:00,0.5,,,0.5
05-10-2021 04:00,13.5,,,13.5
05-10-2021 05:00,11.5,,,11.5
05-10-2021 06:00,7.5,,,7.5
05-10-2021 07:00,0.5,,,0.5
05-10-2021 09:00,9.0,,,9.0
05-10-2021 11:00,1.5,,,1.5
05-10-2021 18:00,1.0,,,1.0
05-10-2021 19:00,0.5,,,0.5
05-10-2021 20:00,6.0,,,6.0
05-10-2021 22:00,10.5,,,10.5
05-10-2021 23:00,4.0,,,4.0
05-10-2022 14:00,0.5,,,0.5
05-10-2022 15:00,,,0.5,0.5
05-10-2022 20:00,,0.5,,0.5
05-10-2023 03:00,3.0,,,3.0
05-10-2023 04:00,1.0,,1.0,1.0
05-10-2025 15:00,4.0,,,4.0
05-11-2021 13:00,2.0,,,2.0
05-11-2021 23:00,4.0,,,4.0
05-11-2022 14:00,,7.5,,7.5
05-11-2022 20:00,0.5,,,0.5
05-11-2022 21:00,3.0,,,3.0
05-11-2025 13:00,,,0.5,0.5
05-11-2025 14:00,,,0.5,0.5
05-11-2025 20:00,,2.0,,2.0
05-11-2025 21:00,2.0,10.0,0.5,4.166666666666667
05-12-2022 04:00,,0.5,,0.5
05-12-2024 04:00,,3.5,,3.5
05-12-2024 05:00,0.5,,,0.5
05-12-2025 01:00,,,1.0,1.0
05-12-2025 02:00,,,0.5,0.5
05-12-2025 03:00,1.5,,,1.5
05-12-2025 04:00,1.5,,,1.5
05-12-2025 05:00,2.0,,0.5,1.25
05-12-2025 06:00,1.5,,,1.5
05-12-2025 07:00,1.5,,,1.5
05-12-2025 08:00,1.5,,,1.5
05-12-2025 09:00,1.0,,,1.0
05-12-2025 10:00,1.0,,,1.0
05-12-2025 11:00,1.0,,,1.0
05-12-2025 12:00,1.5,,,1.5
05-12-2025 13:00,2.5,,,2.5
05-12-2025 14:00,10.5,,,10.5
05-12-2025 15:00,10.0,,,10.0
05-12-2025 16:00,7.0,,,7.0
05-12-2025 17:00,2.5,,,2.5
06-01-2024 11:00,0.5,,0.5,0.5
06-01-2024 12:00,,,0.5,0.5
06-05-2023 03:00,0.5,,,0.5
06-05-2023 12:00,0.5,,,0.5
06-05-2023 20:00,0.5,,,0.5
06-06-2023 16:00,,4.0,,4.0
06-06-2023 17:00,0.5,,,0.5
06-06-2023 18:00,1.0,,,1.0
06-06-2023 19:00,1.0,,,1.0
06-06-2023 20:00,0.5,,,0.5
06-06-2023 21:00,0.5,,,0.5
06-06-2024 20:00,,14.0,,14.0
06-06-2024 21:00,2.0,,14.5,8.25
06-06-2024 22:00,2.5,,1.5,2.0
06-06-2024 23:00,2.0,,3.0,2.5
06-07-2022 00:00,,,0.5,0.5
06-07-2022 02:00,,0.5,,0.5
06-07-2022 03:00,,,0.5,0.5
06-07-2022 07:00,,,0.5,0.5
06-07-2022 16:00,,,2.5,2.5
06-07-2022 17:00,,,2.0,2.0
06-07-2022 19:00,,,0.5,0.5
06-07-2024 00:00,38.0,,7.5,22.75
06-07-2024 01:00,4.0,,3.5,3.75
06-07-2024 02:00,0.5,,0.5,0.5
06-07-2024 03:00,,,0.5,0.5
06-08-2022 06:00,,0.5,,0.5
06-08-2024 20:00,1.5,,27.5,14.5
06-08-2024 21:00,16.0,,3.5,9.75
06-08-2024 22:00,1.5,,1.5,1.5
06-09-2021 20:00,26.5,,6.0,16.25
06-09-2021 21:00,0.5,,,0.5
06-09-2024 00:00,,,0.5,0.5
06-09-2024 02:00,,,1.0,1.0
06-09-2024 03:00,0.5,,,0.5
06-09-2024 04:00,,,2.0,2.0
06-09-2024 06:00,1.0,,1.0,1.0
06-09-2024 07:00,0.5,,1.0,0.75
06-10-2021 06:00,0.5,,,0.5
06-10-2021 08:00,0.5,,,0.5
06-10-2022 00:00,,0.5,0.5,0.5
06-10-2022 07:00,,,1.0,1.0
06-10-2022 18:00,,0.5,,0.5
06-10-2022 22:00,,0.5,,0.5
06-10-2023 00:00,,,0.5,0.5
06-10-2023 15:00,,,1.0,1.0
06-11-2021 02:00,0.5,,,0.5
06-11-2021 03:00,1.5,,,1.5
06-11-2021 04:00,0.5,,,0.5
06-11-2021 14:00,1.5,,0.5,1.0
06-11-2021 15:00,1.5,,2.5,2.0
06-11-2021 16:00,,,0.5,0.5
06-11-2021 22:00,28.5,,,28.5
06-11-2021 23:00,2.0,,,2.0
06-11-2023 11:00,,,11.0,11.0
06-11-2023 12:00,,,0.5,0.5
06-11-2024 15:00,,,1.0,1.0
06-11-2024 21:00,2.5,,1.5,2.0
06-11-2024 22:00,10.0,,2.5,6.25
06-11-2025 03:00,,,0.5,0.5
06-11-2025 18:00,,3.0,,3.0
06-11-2025 19:00,0.5,53.5,,27.0
06-11-2025 20:00,1.5,4.5,,3.0
06-12-2022 07:00,,0.5,,0.5
06-12-2022 13:00,,0.5,,0.5
07-01-2023 11:00,0.5,,,0.5
07-01-2023 22:00,3.0,,,3.0
07-01-2023 23:00,2.5,,,2.5
07-01-2024 06:00,,,3.0,3.0
07-01-2024 09:00,,,0.5,0.5
07-01-2024 10:00,7.0,,4.5,5.75
07-01-2024 11:00,,,0.5,0.5
07-01-2024 12:00,2.0,,,2.0
07-01-2024 14:00,,,1.0,1.0
07-01-2024 15:00,4.5,,1.0,2.75
07-01-2024 16:00,,,0.5,0.5
07-01-2024 18:00,2.0,,2.0,2.0
07-01-2024 19:00,9.5,,10.5,10.0
07-01-2024 20:00,2.5,,8.0,5.25
07-01-2024 21:00,1.5,,2.0,1.75
07-01-2024 22:00,0.5,,0.5,0.5
07-02-2025 09:00,,0.5,,0.5
07-05-2023 07:00,0.5,,,0.5
07-05-2023 18:00,0.5,,,0.5
07-05-2025 00:00,,,0.5,0.5
07-05-2025 01:00,,,1.0,1.0
07-06-2024 00:00,0.5,,1.0,0.75
07-06-2024 02:00,0.5,,1.0,0.75
07-06-2024 03:00,2.0,,3.0,2.5
07-06-2024 07:00,,,0.5,0.5
07-07-2024 18:00,10.5,,2.0,6.25
07-07-2024 21:00,,,1.0,1.0
07-07-2024 22:00,0.5,,,0.5
07-07-2024 23:00,0.5,,,0.5
07-08-2023 02:00,,0.5,,0.5
07-08-2024 03:00,,,2.0,2.0
07-08-2024 04:00,,,1.5,1.5
07-09-2022 15:00,,1.5,,1.5
07-09-2022 16:00,,0.5,,0.5
07-09-2022 19:00,,,3.0,3.0
07-09-2023 20:00,0.5,3.5,,2.0
07-09-2023 21:00,9.5,3.0,1.5,4.666666666666667
07-09-2023 22:00,3.0,11.0,22.0,12.0
07-09-2023 23:00,27.5,6.0,22.5,18.666666666666668
07-09-2024 03:00,12.0,,1.5,6.75
07-09-2024 04:00,,,0.5,0.5
07-09-2025 02:00,,15.0,,15.0
07-09-2025 03:00,17.5,2.5,2.5,7.5
07-09-2025 18:00,,0.5,,0.5
07-10-2021 01:00,2.5,,,2.5
07-10-2021 02:00,5.5,,,5.5
07-10-2021 03:00,25.5,,,25.5
07-10-2021 04:00,0.5,,,0.5
07-10-2021 05:00,0.5,,,0.5
07-10-2022 02:00,,0.5,,0.5
07-10-2022 07:00,,0.5,,0.5
07-10-2022 10:00,,0.5,,0.5
07-10-2022 15:00,0.5,,,0.5
07-10-2023 18:00,,,11.5,11.5
07-10-2024 22:00,0.5,,,0.5
07-11-2021 00:00,5.5,,,5.5
07-11-2021 01:00,31.5,,,31.5
07-11-2021 02:00,25.0,,,25.0
07-11-2021 03:00,4.0,,,4.0
07-11-2021 04:00,24.5,,,24.5
07-11-2021 05:00,14.0,,,14.0
07-11-2021 06:00,33.0,,,33.0
07-11-2021 07:00,18.0,,,18.0
07-11-2021 08:00,9.0,,,9.0
07-11-2021 09:00,11.5,,,11.5
07-11-2021 13:00,1.5,,,1.5
07-11-2021 15:00,20.0,,,20.0
07-11-2021 16:00,15.0,,,15.0
07-11-2021 17:00,1.0,,,1.0
07-11-2021 21:00,0.5,,,0.5
07-11-2023 02:00,14.5,,7.0,10.75
07-11-2023 03:00,1.0,,6.0,3.5
07-11-2023 06:00,1.0,,3.5,2.25
07-11-2023 23:00,3.0,,,3.0
07-11-2024 00:00,0.5,,,0.5
07-11-2024 01:00,1.5,,,1.5
07-11-2024 02:00,,3.0,,3.0
07-11-2024 03:00,,11.0,2.5,6.75
07-11-2024 04:00,,5.0,,5.0
07-11-2024 07:00,1.0,,,1.0
07-11-2024 08:00,4.5,,1.5,3.0
07-11-2024 09:00,0.5,,1.5,1.0
07-11-2024 10:00,,1.5,1.0,1.25
07-11-2024 11:00,0.5,0.5,1.0,0.6666666666666666
07-11-2024 12:00,3.0,,3.5,3.25
07-11-2024 13:00,1.0,2.5,0.5,1.3333333333333333
07-11-2024 14:00,3.5,,0.5,2.0
07-11-2024 19:00,0.5,,,0.5
07-11-2025 12:00,,,0.5,0.5
07-12-2023 07:00,0.5,,,0.5
08-01-2024 00:00,,,0.5,0.5
08-01-2024 01:00,0.5,,14.5,7.5
08-01-2024 02:00,2.5,,0.5,1.5
08-01-2024 03:00,3.5,,2.0,2.75
08-01-2024 04:00,2.5,,3.0,2.75
08-01-2024 06:00,,,0.5,0.5
08-01-2024 07:00,,,1.0,1.0
08-01-2024 08:00,4.5,,23.0,13.75
08-01-2024 09:00,2.0,,3.5,2.75
08-01-2024 10:00,0.5,,1.5,1.0
08-01-2024 11:00,0.5,,0.5,0.5
08-05-2023 08:00,0.5,,,0.5
08-05-2023 22:00,0.5,,,0.5
08-05-2024 05:00,,,5.5,5.5
08-06-2024 00:00,,2.0,,2.0
08-06-2024 17:00,,0.5,,0.5
08-07-2022 03:00,0.5,,,0.5
08-07-2024 02:00,,,0.5,0.5
08-07-2024 03:00,0.5,,,0.5
08-08-2024 04:00,0.5,,,0.5
08-08-2024 15:00,1.5,,,1.5
08-08-2024 16:00,0.5,,,0.5
08-09-2021 11:00,,,1.0,1.0
08-09-2022 12:00,,0.5,0.5,0.5
08-09-2023 00:00,1.5,2.0,0.5,1.3333333333333333
08-10-2022 03:00,,0.5,,0.5
08-10-2022 13:00,,0.5,,0.5
08-10-2022 16:00,,0.5,,0.5
08-10-2022 20:00,,0.5,,0.5
08-10-2022 21:00,,,2.0,2.0
08-10-2022 22:00,3.5,,2.0,2.75
08-10-2024 02:00,1.0,,,1.0
08-10-2024 03:00,,,1.0,1.0
08-10-2024 04:00,,0.5,,0.5
08-10-2024 06:00,,,25.5,25.5
08-11-2021 08:00,3.0,,,3.0
08-11-2021 09:00,0.5,,,0.5
08-11-2021 11:00,2.0,,,2.0
08-11-2021 12:00,4.0,,,4.0
08-11-2021 13:00,0.5,,,0.5
08-11-2021 14:00,1.0,,0.5,0.75
08-11-2021 15:00,1.5,,,1.5
08-11-2021 16:00,1.0,,,1.0
08-11-2021 17:00,1.0,,,1.0
08-11-2021 18:00,1.0,,,1.0
08-11-2021 19:00,6.0,,,6.0
08-11-2021 20:00,3.5,,,3.5
08-11-2021 21:00,1.5,,,1.5
08-11-2021 22:00,2.0,,,2.0
08-11-2021 23:00,8.5,,,8.5
08-11-2023 01:00,4.5,,,4.5
08-11-2023 03:00,1.5,,,1.5
08-12-2022 00:00,,0.5,,0.5
08-12-2022 10:00,0.5,,0.5,0.5
08-12-2022 11:00,0.5,,0.5,0.5
08-12-2022 13:00,,,0.5,0.5
08-12-2022 19:00,2.0,,1.5,1.75
08-12-2022 20:00,1.0,,1.0,1.0
08-12-2022 21:00,3.0,,2.5,2.75
08-12-2022 22:00,4.5,,3.5,4.0
08-12-2022 23:00,3.5,,3.5,3.5
08-12-2023 06:00,0.5,,,0.5
08-12-2023 07:00,0.5,,,0.5
09-01-2024 00:00,,,12.5,12.5
09-01-2024 01:00,,,26.0,26.0
09-01-2024 02:00,,,0.5,0.5
09-01-2024 03:00,,,5.5,5.5
09-05-2023 19:00,0.5,,,0.5
09-07-2022 17:00,,6.0,,6.0
09-07-2022 20:00,,0.5,,0.5
09-07-2022 23:00,,0.5,,0.5
09-07-2023 18:00,2.0,,,2.0
09-07-2023 19:00,2.5,,9.0,5.75
09-07-2023 20:00,1.5,2.0,17.5,7.0
09-07-2023 21:00,,4.5,,4.5
09-07-2023 22:00,0.5,0.5,,0.5
09-07-2023 23:00,2.0,,2.5,2.25
09-07-2024 05:00,,,0.5,0.5
09-07-2024 07:00,,,0.5,0.5
09-08-2021 14:00,,,1.5,1.5
09-08-2021 15:00,,,3.0,3.0
09-08-2021 18:00,1.5,,7.0,4.25
09-08-2024 14:00,1.0,,,1.0
09-09-2021 13:00,,,5.0,5.0
09-09-2022 19:00,,0.5,,0.5
09-09-2023 18:00,,2.5,,2.5
09-09-2025 15:00,0.5,,,0.5
09-10-2021 16:00,3.5,,,3.5
09-10-2021 17:00,86.0,,1.5,43.75
09-10-2021 18:00,1.0,,0.5,0.75
09-10-2022 00:00,,0.5,,0.5
09-10-2022 06:00,0.5,,,0.5
09-10-2022 13:00,,0.5,,0.5
09-10-2022 16:00,,0.5,,0.5
09-10-2022 20:00,,0.5,,0.5
09-10-2024 02:00,0.5,0.5,,0.5
09-10-2024 04:00,0.5,,,0.5
09-10-2024 06:00,2.0,,,2.0
09-10-2024 07:00,0.5,,,0.5
09-10-2024 10:00,4.5,,5.0,4.75
09-11-2021 00:00,2.0,,,2.0
09-11-2021 01:00,3.5,,,3.5
09-11-2021 03:00,3.0,,,3.0
09-11-2021 04:00,0.5,,,0.5
09-11-2021 08:00,0.5,,,0.5
09-11-2021 13:00,5.0,,,5.0
09-11-2021 14:00,0.5,,,0.5
09-11-2021 20:00,0.5,,,0.5
09-11-2021 22:00,1.0,,,1.0
09-11-2022 15:00,,1.5,,1.5
09-11-2022 18:00,,0.5,,0.5
09-11-2022 19:00,,8.0,,8.0
09-11-2022 22:00,,3.5,,3.5
09-11-2023 07:00,0.5,,,0.5
09-11-2023 17:00,16.0,,3.0,9.5
09-11-2023 18:00,0.5,,,0.5
09-11-2023 19:00,,,0.5,0.5
09-11-2023 20:00,,,5.0,5.0
09-11-2023 21:00,3.0,,2.0,2.5
09-12-2022 00:00,0.5,,1.0,0.75
09-12-2022 01:00,1.5,,1.0,1.25
09-12-2022 02:00,1.5,,1.0,1.25
09-12-2022 03:00,1.5,,1.0,1.25
09-12-2022 04:00,17.5,,15.5,16.5
09-12-2022 05:00,17.5,,13.5,15.5
09-12-2022 06:00,9.0,,6.0,7.5
09-12-2022 07:00,3.5,,2.0,2.75
09-12-2022 08:00,,,0.5,0.5
09-12-2022 09:00,6.0,,7.0,6.5
09-12-2022 11:00,0.5,,0.5,0.5
09-12-2022 12:00,3.0,,3.0,3.0
09-12-2022 13:00,2.0,,5.0,3.5
09-12-2022 14:00,2.5,,3.5,3.0
09-12-2022 15:00,,,0.5,0.5
09-12-2022 16:00,7.0,,7.5,7.25
09-12-2022 17:00,4.5,,5.5,5.0
09-12-2022 18:00,7.5,,7.5,7.5
09-12-2022 19:00,14.0,,14.5,14.25
09-12-2022 20:00,19.5,,22.0,20.75
09-12-2022 21:00,8.0,,8.0,8.0
09-12-2022 22:00,3.5,,8.0,5.75
09-12-2022 23:00,7.5,,7.0,7.25
10-01-2024 11:00,26.0,,,26.0
10-01-2024 12:00,,,2.0,2.0
10-01-2025 17:00,0.5,,,0.5
10-05-2023 15:00,0.5,,,0.5
10-05-2023 19:00,,0.5,,0.5
10-06-2024 18:00,6.5,,13.0,9.75
10-06-2024 19:00,0.5,,,0.5
10-06-2024 20:00,,,0.5,0.5
10-07-2022 00:00,,0.5,,0.5
10-07-2022 16:00,,0.5,,0.5
10-07-2022 17:00,,2.0,,2.0
10-07-2023 00:00,1.5,,1.5,1.5
10-07-2023 01:00,,,0.5,0.5
10-07-2023 03:00,0.5,,,0.5
10-08-2021 02:00,0.5,,10.5,5.5
10-08-2021 03:00,,,12.0,12.0
10-08-2021 04:00,0.5,,1.0,0.75
10-08-2021 06:00,,,0.5,0.5
10-08-2021 07:00,0.5,,4.5,2.5
10-08-2021 08:00,0.5,,,0.5
10-08-2021 09:00,,,0.5,0.5
10-08-2023 16:00,7.0,,5.0,6.0
10-08-2023 17:00,2.5,,28.5,15.5
10-08-2023 18:00,0.5,,0.5,0.5
10-08-2023 19:00,,,0.5,0.5
10-08-2025 18:00,,,0.5,0.5
10-08-2025 19:00,,,1.5,1.5
10-09-2021 02:00,,,0.5,0.5
10-09-2025 16:00,1.0,,,1.0
10-09-2025 17:00,1.0,,9.5,5.25
10-10-2021 16:00,4.0,,13.5,8.75
10-10-2022 00:00,,0.5,,0.5
10-10-2022 01:00,5.5,,2.0,3.75
10-10-2022 03:00,11.0,,,11.0
10-10-2022 04:00,11.0,,1.0,6.0
10-10-2022 05:00,,0.5,,0.5
10-10-2022 06:00,,,1.0,1.0
10-10-2022 07:00,2.0,,0.5,1.25
10-10-2022 14:00,,0.5,,0.5
10-10-2022 18:00,,0.5,,0.5
10-10-2022 23:00,,0.5,,0.5
10-10-2024 03:00,,,0.5,0.5
10-10-2024 04:00,,,12.0,12.0
10-10-2024 05:00,,,4.0,4.0
10-10-2024 06:00,,,4.5,4.5
10-10-2024 07:00,,,0.5,0.5
10-10-2024 10:00,,,0.5,0.5
10-10-2024 11:00,,,0.5,0.5
10-11-2021 02:00,1.0,,,1.0
10-11-2021 04:00,5.0,,,5.0
10-11-2021 05:00,1.0,,,1.0
10-11-2021 06:00,14.0,,,14.0
10-11-2021 07:00,3.0,,,3.0
10-11-2021 12:00,1.0,,,1.0
10-11-2021 13:00,13.0,,,13.0
10-11-2021 15:00,3.5,,,3.5
10-11-2021 19:00,16.5,,,16.5
10-11-2021 20:00,4.0,,,4.0
10-11-2021 21:00,7.0,,,7.0
10-11-2021 22:00,4.5,,,4.5
10-11-2021 23:00,12.0,,,12.0
10-11-2022 02:00,,4.0,,4.0
10-11-2022 03:00,,1.0,,1.0
10-11-2022 06:00,2.5,0.5,,1.5
10-11-2022 07:00,,,5.0,5.0
10-11-2022 08:00,4.5,1.5,1.0,2.3333333333333335
10-11-2022 09:00,,0.5,0.5,0.5
10-11-2022 10:00,,2.0,,2.0
10-11-2022 12:00,,1.5,,1.5
10-11-2022 18:00,2.0,,,2.0
10-11-2022 19:00,6.5,20.0,3.5,10.0
10-11-2022 20:00,,,0.5,0.5
10-11-2022 21:00,,,0.5,0.5
10-11-2022 22:00,,,0.5,0.5
10-11-2023 01:00,,,0.5,0.5
10-12-2022 00:00,1.0,,2.0,1.5
10-12-2022 01:00,0.5,,1.0,0.75
10-12-2022 05:00,0.5,,0.5,0.5
10-12-2022 06:00,0.5,,0.5,0.5
10-12-2022 07:00,0.5,,,0.5
10-12-2022 10:00,0.5,,0.5,0.5
10-12-2022 14:00,,,0.5,0.5
10-12-2022 15:00,0.5,,,0.5
10-12-2023 23:00,0.5,,,0.5
11-01-2025 13:00,,0.5,,0.5
11-03-2025 09:00,,,1.0,1.0
11-03-2025 10:00,,0.5,,0.5
11-03-2025 13:00,11.5,,13.5,12.5
11-03-2025 14:00,,,1.5,1.5
11-03-2025 15:00,1.0,2.5,1.0,1.5
11-03-2025 16:00,0.5,0.5,,0.5
11-03-2025 21:00,3.0,,9.5,6.25
11-03-2025 23:00,,389.0,,389.0
11-05-2023 01:00,,0.5,,0.5
11-05-2023 18:00,0.5,,,0.5
11-06-2023 20:00,,3.5,,3.5
11-06-2023 21:00,1.0,0.5,,0.75
11-06-2023 22:00,1.0,0.5,,0.75
11-06-2023 23:00,1.0,3.5,,2.25
11-06-2024 20:00,,0.5,,0.5
11-06-2024 21:00,0.5,12.0,1.5,4.666666666666667
11-06-2024 22:00,14.5,4.0,6.0,8.166666666666666
11-07-2022 17:00,,,4.0,4.0
11-07-2024 01:00,3.5,,3.5,3.5
11-07-2024 04:00,,,0.5,0.5
11-07-2024 05:00,1.0,,1.0,1.0
11-07-2024 06:00,1.5,,1.0,1.25
11-07-2024 07:00,,,0.5,0.5
11-08-2021 15:00,,,1.0,1.0
11-08-2021 16:00,,,1.5,1.5
11-08-2025 03:00,,,0.5,0.5
11-08-2025 14:00,,,1.5,1.5
11-08-2025 19:00,,,7.0,7.0
11-08-2025 20:00,0.5,,0.5,0.5
11-10-2021 11:00,0.5,,,0.5
11-10-2021 12:00,,,0.5,0.5
11-10-2022 05:00,,0.5,,0.5
11-10-2022 10:00,,0.5,,0.5
11-10-2022 11:00,6.0,,17.5,11.75
11-10-2022 21:00,,0.5,,0.5
11-10-2024 04:00,0.5,,,0.5
11-10-2024 08:00,,,0.5,0.5
11-10-2024 09:00,,,0.5,0.5
11-11-2021 00:00,18.5,,,18.5
11-11-2021 01:00,18.0,,,18.0
11-11-2021 02:00,21.5,,,21.5
11-11-2021 03:00,13.5,,,13.5
11-11-2021 04:00,8.0,,,8.0
11-11-2021 05:00,5.0,,,5.0
11-11-2021 06:00,2.5,,,2.5
11-11-2021 07:00,8.0,,,8.0
11-11-2021 08:00,6.5,,,6.5
11-11-2021 09:00,0.5,,,0.5
11-11-2021 10:00,7.0,,,7.0
11-11-2021 11:00,10.0,,,10.0
11-11-2021 12:00,20.5,,,20.5
11-11-2021 13:00,18.5,,,18.5
11-11-2021 14:00,1.0,,2.5,1.75
11-11-2022 00:00,0.5,,,0.5
11-11-2022 01:00,9.5,,15.5,12.5
11-11-2022 02:00,7.5,,6.5,7.0
11-11-2022 05:00,1.0,,3.0,2.0
11-11-2022 06:00,1.0,,0.5,0.75
11-11-2022 07:00,7.5,,2.5,5.0
11-11-2022 08:00,,,24.0,24.0
11-11-2022 09:00,,,1.0,1.0
11-11-2022 10:00,3.0,,3.0,3.0
11-11-2022 12:00,0.5,,,0.5
11-11-2022 13:00,,,0.5,0.5
11-11-2022 14:00,0.5,,1.0,0.75
11-11-2022 15:00,,,0.5,0.5
11-11-2022 18:00,0.5,,,0.5
11-11-2022 22:00,0.5,3.5,0.5,1.5
11-11-2024 23:00,5.0,1.0,4.5,3.5
11-12-2022 03:00,,,4.5,4.5
11-12-2022 04:00,6.0,,2.5,4.25
11-12-2022 06:00,1.0,,1.0,1.0
11-12-2022 08:00,1.5,,,1.5
11-12-2022 09:00,0.5,,,0.5
11-12-2022 22:00,,,2.0,2.0
11-12-2023 03:00,0.5,,,0.5
11-12-2023 16:00,,,27.0,27.0
11-12-2024 09:00,,10.5,,10.5
11-12-2024 10:00,9.5,,7.5,8.5
11-12-2024 12:00,0.5,,,0.5
11-12-2024 13:00,,11.5,,11.5
11-12-2024 14:00,,,0.5,0.5
11-12-2024 15:00,0.5,2.5,2.0,1.6666666666666667
11-12-2024 16:00,0.5,,1.0,0.75
11-12-2024 18:00,,11.5,0.5,6.0
11-12-2024 20:00,0.5,,0.5,0.5
11-12-2024 22:00,0.5,4.0,2.0,2.1666666666666665
11-12-2024 23:00,0.5,2.5,1.0,1.3333333333333333
12-01-2025 23:00,,,1.5,1.5
12-03-2025 00:00,,259.5,,259.5
12-05-2023 22:00,0.5,,,0.5
12-05-2025 18:00,2.5,,,2.5
12-06-2023 00:00,0.5,,,0.5
12-06-2024 00:00,,,0.5,0.5
12-06-2024 02:00,0.5,,0.5,0.5
12-06-2024 03:00,0.5,,0.5,0.5
12-06-2024 23:00,4.5,,2.5,3.5
12-07-2022 19:00,,2.0,0.5,1.25
12-07-2022 20:00,,,3.5,3.5
12-07-2024 21:00,,,1.5,1.5
12-07-2024 22:00,21.0,,8.0,14.5
12-07-2024 23:00,1.0,,4.5,2.75
12-08-2023 14:00,0.5,4.0,6.0,3.5
12-08-2023 15:00,2.0,1.0,1.0,1.3333333333333333
12-08-2023 17:00,0.5,,,0.5
12-08-2023 18:00,,,0.5,0.5
12-08-2023 19:00,,,1.0,1.0
12-08-2024 06:00,7.0,,,7.0
12-08-2024 09:00,,,0.5,0.5
12-08-2025 07:00,0.5,,,0.5
12-08-2025 08:00,,,0.5,0.5
12-10-2021 18:00,,,2.5,2.5
12-10-2021 19:00,,,1.5,1.5
12-10-2021 20:00,,,0.5,0.5
12-10-2022 03:00,,0.5,,0.5
12-10-2022 11:00,,0.5,,0.5
12-10-2024 02:00,,,5.5,5.5
12-10-2024 06:00,14.5,,11.0,12.75
12-10-2024 07:00,3.0,,,3.0
12-10-2024 08:00,,,1.0,1.0
12-11-2022 05:00,1.0,,34.5,17.75
12-11-2022 06:00,8.5,,11.0,9.75
12-11-2022 07:00,0.5,,7.0,3.75
12-11-2022 08:00,,,0.5,0.5
12-11-2022 11:00,,,0.5,0.5
12-11-2022 13:00,,,7.0,7.0
12-11-2022 21:00,0.5,,0.5,0.5
12-11-2024 00:00,,,0.5,0.5
12-11-2024 01:00,,1.0,,1.0
12-11-2024 02:00,0.5,,3.5,2.0
12-11-2024 03:00,1.5,,0.5,1.0
12-11-2024 04:00,4.5,,,4.5
12-11-2024 05:00,6.0,0.5,18.5,8.333333333333334
12-11-2024 06:00,5.5,0.5,8.5,4.833333333333333
12-11-2024 07:00,5.5,1.0,,3.25
12-11-2024 08:00,2.5,3.0,2.0,2.5
12-11-2024 09:00,6.0,8.0,1.5,5.166666666666667
12-11-2024 10:00,2.0,6.0,,4.0
12-11-2024 11:00,2.0,2.0,,2.0
12-11-2024 12:00,0.5,2.0,,1.25
12-11-2024 18:00,1.5,,,1.5
12-11-2024 20:00,,1.0,,1.0
12-12-2022 00:00,,,6.0,6.0
12-12-2022 01:00,,,0.5,0.5
12-12-2022 03:00,2.0,,0.5,1.25
12-12-2022 05:00,2.5,,,2.5
12-12-2022 06:00,2.0,,0.5,1.25
12-12-2022 10:00,1.0,,1.5,1.25
12-12-2022 11:00,1.0,,2.5,1.75
12-12-2022 12:00,5.0,,10.0,7.5
12-12-2022 13:00,3.5,,12.0,7.75
12-12-2022 14:00,1.0,,3.0,2.0
12-12-2022 15:00,4.5,,4.5,4.5
12-12-2022 16:00,1.0,,1.0,1.0
12-12-2023 14:00,,,0.5,0.5
12-12-2023 15:00,,,1.0,1.0
12-12-2023 16:00,,,4.5,4.5
12-12-2023 17:00,,,43.0,43.0
12-12-2023 18:00,,,6.5,6.5
12-12-2023 19:00,,,1.5,1.5
12-12-2023 20:00,,,1.0,1.0
12-12-2023 22:00,,,2.5,2.5
12-12-2023 23:00,,,0.5,0.5
12-12-2024 00:00,,,0.5,0.5
12-12-2024 02:00,13.5,,6.5,10.0
12-12-2024 03:00,3.5,,3.5,3.5
12-12-2024 04:00,0.5,,0.5,0.5
12-12-2024 05:00,0.5,,,0.5
12-12-2024 06:00,12.5,,11.0,11.75
12-12-2024 07:00,3.0,,1.0,2.0
12-12-2024 08:00,3.5,,1.5,2.5
12-12-2024 09:00,2.5,,2.0,2.25
12-12-2024 10:00,3.0,,2.0,2.5
12-12-2024 11:00,,,4.5,4.5
12-12-2024 12:00,2.0,,56.0,29.0
12-12-2024 13:00,8.0,,3.0,5.5
12-12-2024 17:00,3.0,0.5,,1.75
12-12-2024 18:00,0.5,,,0.5
12-12-2024 19:00,1.5,2.5,1.5,1.8333333333333333
12-12-2024 21:00,,0.5,,0.5
13-01-2025 01:00,3.5,,4.0,3.75
13-01-2025 02:00,0.5,,1.5,1.0
13-01-2025 03:00,,2.5,,2.5
13-01-2025 09:00,,9.0,,9.0
13-01-2025 10:00,,9.5,1.5,5.5
13-01-2025 14:00,,20.0,,20.0
13-04-2022 03:00,1.0,,0.5,0.75
13-04-2022 04:00,,,0.5,0.5
13-05-2024 12:00,5.5,,,5.5
13-06-2023 00:00,0.5,,,0.5
13-06-2024 00:00,9.0,,2.5,5.75
13-06-2024 02:00,,,0.5,0.5
13-06-2024 18:00,1.0,,,1.0
13-06-2024 19:00,2.5,,,2.5
13-07-2022 18:00,,9.0,,9.0
13-07-2022 20:00,,,2.5,2.5
13-07-2023 00:00,,,2.5,2.5
13-07-2023 01:00,0.5,,9.0,4.75
13-07-2023 02:00,0.5,,0.5,0.5
13-07-2023 03:00,1.0,1.0,1.0,1.0
13-07-2023 04:00,2.0,1.0,3.0,2.0
13-07-2023 05:00,3.0,1.0,4.5,2.8333333333333335
13-07-2023 06:00,2.0,,1.0,1.5
13-07-2023 19:00,,1.0,,1.0
13-07-2023 23:00,7.0,6.0,,6.5
13-07-2024 00:00,7.5,,16.0,11.75
13-07-2024 01:00,3.5,,4.0,3.75
13-07-2024 02:00,3.0,,3.5,3.25
13-07-2024 03:00,1.0,,0.5,0.75
13-07-2024 05:00,0.5,,,0.5
13-07-2024 06:00,,,1.0,1.0
13-08-2021 18:00,2.0,,,2.0
13-08-2022 19:00,,0.5,,0.5
13-08-2023 06:00,0.5,,,0.5
13-08-2023 19:00,,5.0,,5.0
13-08-2023 20:00,,3.0,,3.0
13-08-2023 23:00,,4.0,,4.0
13-09-2023 22:00,4.5,1.5,4.0,3.3333333333333335
13-09-2023 23:00,0.5,0.5,2.0,1.0
13-09-2025 05:00,,26.5,,26.5
13-09-2025 06:00,,5.0,,5.0
13-09-2025 11:00,,,0.5,0.5
13-10-2021 21:00,0.5,,2.0,1.25
13-10-2021 22:00,,,1.0,1.0
13-10-2021 23:00,0.5,,,0.5
13-10-2022 01:00,,0.5,,0.5
13-10-2022 15:00,,0.5,,0.5
13-10-2022 16:00,,0.5,,0.5
13-10-2022 17:00,,0.5,,0.5
13-10-2022 20:00,,0.5,,0.5
13-10-2024 06:00,1.5,,,1.5
13-10-2025 05:00,0.5,2.0,,1.25
13-11-2021 00:00,0.5,,,0.5
13-11-2022 00:00,,,0.5,0.5
13-11-2022 03:00,0.5,,1.0,0.75
13-11-2022 04:00,1.5,,1.0,1.25
13-11-2022 05:00,10.0,,6.0,8.0
13-11-2022 06:00,0.5,,,0.5
13-11-2022 07:00,5.0,,35.0,20.0
13-11-2022 11:00,,,0.5,0.5
13-11-2022 16:00,0.5,,,0.5
13-11-2023 19:00,1.0,,3.5,2.25
13-11-2023 21:00,,,0.5,0.5
13-11-2023 22:00,3.0,,4.5,3.75
13-11-2023 23:00,1.0,,1.0,1.0
13-11-2024 00:00,,,0.5,0.5
13-11-2024 01:00,0.5,1.0,2.0,1.1666666666666667
13-11-2024 02:00,1.5,1.0,0.5,1.0
13-11-2024 03:00,2.0,2.0,1.0,1.6666666666666667
13-11-2024 04:00,1.0,,0.5,0.75
13-11-2024 05:00,0.5,1.0,1.0,0.8333333333333334
13-11-2024 06:00,0.5,1.0,0.5,0.6666666666666666
13-11-2024 11:00,,,0.5,0.5
13-11-2024 18:00,0.5,,,0.5
13-11-2025 07:00,6.5,,,6.5
13-11-2025 08:00,,,7.0,7.0
13-11-2025 09:00,3.0,,,3.0
13-11-2025 10:00,,,18.5,18.5
13-11-2025 11:00,,,0.5,0.5
13-12-2023 00:00,,,0.5,0.5
13-12-2023 01:00,,,52.0,52.0
13-12-2023 02:00,,,0.5,0.5
13-12-2023 03:00,,,0.5,0.5
13-12-2023 05:00,,,0.5,0.5
13-12-2023 09:00,,,1.0,1.0
13-12-2023 10:00,,,0.5,0.5
13-12-2023 11:00,,,5.0,5.0
13-12-2023 12:00,,,3.0,3.0
13-12-2023 13:00,,,4.0,4.0
13-12-2023 14:00,,,4.5,4.5
13-12-2023 15:00,,,0.5,0.5
13-12-2023 16:00,,,2.0,2.0
13-12-2023 17:00,,,1.0,1.0
13-12-2023 18:00,,,0.5,0.5
13-12-2023 19:00,,,1.0,1.0
13-12-2023 20:00,,,0.5,0.5
13-12-2023 21:00,,,1.5,1.5
13-12-2024 10:00,,1.0,,1.0
13-12-2024 13:00,,0.5,,0.5
13-12-2024 14:00,,1.5,,1.5
13-12-2024 17:00,,0.5,,0.5
13-12-2024 20:00,,1.0,,1.0
14-01-2022 04:00,,,1.0,1.0
14-01-2022 05:00,0.5,,,0.5
14-01-2025 11:00,,0.5,,0.5
14-06-2022 12:00,,,1.0,1.0
14-06-2022 15:00,8.5,,,8.5
14-06-2023 01:00,,,1.5,1.5
14-07-2023 00:00,2.0,,1.0,1.5
14-07-2024 09:00,,0.5,,0.5
14-07-2024 14:00,,,0.5,0.5
14-07-2024 15:00,,0.5,,0.5
14-07-2024 23:00,0.5,,,0.5
14-08-2023 00:00,9.0,3.0,,6.0
14-08-2023 01:00,52.5,1.0,6.0,19.833333333333332
14-08-2023 02:00,2.0,,5.5,3.75
14-08-2023 03:00,6.5,0.5,39.5,15.5
14-08-2023 04:00,4.0,0.5,9.5,4.666666666666667
14-08-2023 05:00,8.0,,16.0,12.0
14-08-2023 06:00,0.5,,,0.5
14-08-2023 07:00,,,0.5,0.5
14-08-2023 17:00,0.5,,5.5,3.0
14-08-2023 19:00,0.5,,1.0,0.75
14-08-2023 22:00,,1.5,,1.5
14-08-2023 23:00,4.5,4.5,1.0,3.3333333333333335
14-09-2023 00:00,,0.5,,0.5
14-09-2023 01:00,,0.5,,0.5
14-09-2023 19:00,,1.5,,1.5
14-09-2023 21:00,1.0,,16.0,8.5
14-09-2023 22:00,,,0.5,0.5
14-09-2023 23:00,,,0.5,0.5
14-09-2025 07:00,0.5,0.5,,0.5
14-09-2025 10:00,,0.5,,0.5
14-10-2022 05:00,,0.5,,0.5
14-10-2022 06:00,,0.5,,0.5
14-10-2022 07:00,,0.5,,0.5
14-10-2022 09:00,,0.5,,0.5
14-10-2022 10:00,,0.5,,0.5
14-10-2022 15:00,,1.0,,1.0
14-10-2022 18:00,,0.5,,0.5
14-10-2022 19:00,,1.0,,1.0
14-10-2023 07:00,,,3.0,3.0
14-10-2023 08:00,3.0,,4.5,3.75
14-10-2023 09:00,0.5,,,0.5
14-10-2023 11:00,,,0.5,0.5
14-10-2024 02:00,8.0,,0.5,4.25
14-10-2024 03:00,31.5,,17.5,24.5
14-10-2024 04:00,7.0,,6.0,6.5
14-10-2024 05:00,5.5,,5.0,5.25
14-10-2024 06:00,1.0,,0.5,0.75
14-10-2024 12:00,,,0.5,0.5
14-10-2024 13:00,0.5,,,0.5
14-10-2024 19:00,0.5,,1.0,0.75
14-10-2024 21:00,1.5,,5.0,3.25
14-10-2024 22:00,0.5,,0.5,0.5
14-10-2024 23:00,3.5,,18.0,10.75
14-10-2025 04:00,,3.0,,3.0
14-10-2025 05:00,,5.0,,5.0
14-10-2025 06:00,1.5,,2.5,2.0
14-10-2025 08:00,0.5,,1.0,0.75
14-10-2025 09:00,,0.5,,0.5
14-10-2025 10:00,,0.5,2.5,1.5
14-10-2025 11:00,,11.5,,11.5
14-10-2025 12:00,,0.5,,0.5
14-10-2025 23:00,,,5.5,5.5
14-11-2022 08:00,,1.0,,1.0
14-11-2022 12:00,,2.5,,2.5
14-11-2022 14:00,3.5,0.5,1.5,1.8333333333333333
14-11-2022 19:00,,,7.5,7.5
14-11-2022 20:00,1.5,,0.5,1.0
14-11-2022 21:00,14.5,,12.0,13.25
14-11-2023 00:00,5.5,,10.0,7.75
14-11-2023 01:00,1.5,,2.5,2.0
14-11-2023 02:00,1.5,,2.5,2.0
14-11-2023 03:00,2.5,,2.0,2.25
14-11-2023 04:00,,,0.5,0.5
14-11-2023 10:00,1.0,,2.0,1.5
14-11-2023 11:00,4.5,,6.0,5.25
14-11-2023 12:00,2.0,,2.5,2.25
14-11-2023 13:00,3.5,,1.0,2.25
14-11-2023 14:00,14.0,,8.5,11.25
14-11-2023 15:00,0.5,,0.5,0.5
14-11-2023 16:00,,,0.5,0.5
14-11-2023 17:00,1.5,,2.5,2.0
14-11-2023 18:00,6.5,,6.5,6.5
14-11-2023 19:00,12.0,,6.0,9.0
14-11-2023 20:00,5.0,,7.5,6.25
14-11-2023 21:00,2.0,,2.5,2.25
14-11-2023 22:00,5.5,,3.5,4.5
14-11-2023 23:00,7.0,,7.0,7.0
14-11-2024 01:00,,,0.5,0.5
14-11-2024 02:00,3.0,3.0,2.5,2.8333333333333335
14-11-2024 03:00,4.5,1.0,2.0,2.5
14-11-2024 06:00,,0.5,,0.5
14-11-2024 13:00,,1.0,,1.0
14-11-2024 14:00,,0.5,,0.5
14-11-2024 17:00,2.0,,,2.0
14-11-2024 18:00,,,2.0,2.0
14-11-2024 23:00,4.0,,1.5,2.75
14-12-2022 09:00,,10.5,,10.5
14-12-2022 10:00,,13.5,,13.5
14-12-2022 22:00,,2.0,,2.0
14-12-2023 00:00,,,1.0,1.0
14-12-2023 01:00,,,0.5,0.5
14-12-2023 02:00,,,1.5,1.5
14-12-2023 03:00,,,0.5,0.5
14-12-2023 08:00,,,5.0,5.0
14-12-2023 09:00,,,50.0,50.0
14-12-2023 10:00,,,1.5,1.5
14-12-2023 11:00,,,0.5,0.5
14-12-2023 14:00,,,1.0,1.0
14-12-2023 15:00,,,1.5,1.5
14-12-2023 16:00,,,2.5,2.5
14-12-2023 17:00,,,0.5,0.5
14-12-2023 18:00,,,1.0,1.0
14-12-2023 19:00,,,3.0,3.0
14-12-2023 20:00,,,0.5,0.5
14-12-2023 21:00,,,0.5,0.5
14-12-2023 22:00,,,1.0,1.0
14-12-2023 23:00,,,1.5,1.5
14-12-2024 01:00,,1.0,,1.0
14-12-2024 08:00,,2.5,,2.5
14-12-2024 11:00,,1.0,,1.0
14-12-2024 16:00,,0.5,,0.5
14-12-2024 17:00,,0.5,,0.5
15-04-2024 15:00,,,9.0,9.0
15-07-2024 03:00,,,0.5,0.5
15-07-2024 05:00,0.5,,,0.5
15-07-2024 11:00,,0.5,,0.5
15-07-2024 12:00,,0.5,,0.5
15-07-2024 13:00,0.5,0.5,0.5,0.5
15-07-2024 14:00,0.5,0.5,0.5,0.5
15-07-2024 15:00,0.5,1.0,1.0,0.8333333333333334
15-07-2024 16:00,,,0.5,0.5
15-08-2024 03:00,,,1.0,1.0
15-08-2024 07:00,,,0.5,0.5
15-09-2023 19:00,,3.0,,3.0
15-09-2025 22:00,,0.5,,0.5
15-10-2021 13:00,4.5,,,4.5
15-10-2021 14:00,13.5,,0.5,7.0
15-10-2021 15:00,,,4.0,4.0
15-10-2022 01:00,,0.5,,0.5
15-10-2022 03:00,,0.5,,0.5
15-10-2022 05:00,,0.5,,0.5
15-10-2022 09:00,,0.5,,0.5
15-10-2022 11:00,,0.5,,0.5
15-10-2022 22:00,,0.5,,0.5
15-10-2023 04:00,26.0,,1.5,13.75
15-10-2023 05:00,4.0,,6.0,5.0
15-10-2023 06:00,2.5,,3.0,2.75
15-10-2023 07:00,1.5,,1.5,1.5
15-10-2023 09:00,,,0.5,0.5
15-10-2024 00:00,46.5,,20.0,33.25
15-10-2024 01:00,0.5,,1.5,1.0
15-10-2024 03:00,1.0,,,1.0
15-10-2024 04:00,1.0,,,1.0
15-10-2024 07:00,3.5,,,3.5
15-10-2024 08:00,7.0,,10.0,8.5
15-10-2024 09:00,3.5,,,3.5
15-10-2024 10:00,25.0,,24.5,24.75
15-10-2024 11:00,24.5,,88.0,56.25
15-10-2024 12:00,9.0,,10.5,9.75
15-10-2024 13:00,,,3.0,3.0
15-10-2024 14:00,9.0,,19.0,14.0
15-10-2024 15:00,,,3.0,3.0
15-10-2024 16:00,3.5,,3.0,3.25
15-10-2024 17:00,2.5,,1.0,1.75
15-10-2024 18:00,3.0,,1.0,2.0
15-10-2024 19:00,6.0,,5.0,5.5
15-10-2024 20:00,8.0,,9.5,8.75
15-10-2024 21:00,1.5,,,1.5
15-10-2024 22:00,,,0.5,0.5
15-10-2024 23:00,0.5,,2.5,1.5
15-10-2025 00:00,,,1.0,1.0
15-10-2025 01:00,1.0,,,1.0
15-10-2025 03:00,1.0,,,1.0
15-10-2025 04:00,4.5,,19.0,11.75
15-10-2025 05:00,5.5,,11.0,8.25
15-10-2025 06:00,0.5,,,0.5
15-10-2025 07:00,2.5,,2.5,2.5
15-10-2025 08:00,,0.5,1.0,0.75
15-10-2025 09:00,2.0,1.0,0.5,1.1666666666666667
15-10-2025 10:00,,0.5,,0.5
15-10-2025 11:00,0.5,,,0.5
15-10-2025 16:00,0.5,,,0.5
15-10-2025 17:00,,5.5,,5.5
15-10-2025 23:00,2.0,0.5,,1.25
15-11-2021 04:00,1.5,,,1.5
15-11-2021 05:00,1.0,,,1.0
15-11-2022 05:00,0.5,,0.5,0.5
15-11-2022 11:00,,2.5,,2.5
15-11-2022 13:00,,1.0,,1.0
15-11-2022 14:00,,1.0,,1.0
15-11-2022 20:00,,1.0,,1.0
15-11-2023 00:00,2.5,,2.5,2.5
15-11-2023 01:00,,,1.0,1.0
15-11-2023 02:00,1.5,,2.5,2.0
15-11-2023 03:00,3.0,,1.0,2.0
15-11-2023 04:00,,,0.5,0.5
15-11-2023 08:00,7.5,,0.5,4.0
15-11-2023 09:00,0.5,,0.5,0.5
15-11-2023 11:00,0.5,,,0.5
15-11-2023 12:00,1.5,,5.0,3.25
15-11-2023 14:00,3.5,,1.5,2.5
15-11-2023 15:00,0.5,,0.5,0.5
15-11-2023 16:00,,,1.0,1.0
15-11-2023 17:00,,,0.5,0.5
15-11-2023 19:00,1.5,,,1.5
15-11-2023 20:00,4.5,,0.5,2.5
15-11-2023 21:00,0.5,,0.5,0.5
15-11-2023 22:00,0.5,,0.5,0.5
15-11-2023 23:00,,,0.5,0.5
15-11-2024 00:00,3.5,,7.0,5.25
15-11-2024 02:00,1.0,,,1.0
15-11-2024 03:00,,,1.0,1.0
15-11-2024 04:00,3.0,,2.0,2.5
15-11-2024 06:00,3.0,,1.0,2.0
15-11-2024 07:00,0.5,,2.5,1.5
15-11-2024 08:00,0.5,,,0.5
15-12-2022 01:00,,3.0,,3.0
15-12-2022 02:00,,0.5,,0.5
15-12-2022 23:00,,0.5,,0.5
15-12-2023 00:00,,,10.5,10.5
15-12-2023 01:00,,,12.0,12.0
15-12-2023 02:00,,,3.5,3.5
15-12-2023 03:00,,,3.5,3.5
15-12-2023 04:00,,,9.5,9.5
15-12-2023 05:00,,,2.0,2.0
15-12-2023 06:00,,,3.0,3.0
15-12-2023 07:00,,,1.0,1.0
15-12-2023 08:00,,,1.5,1.5
15-12-2023 09:00,,,6.0,6.0
15-12-2023 10:00,,,8.5,8.5
15-12-2023 11:00,,,0.5,0.5
15-12-2023 12:00,,,1.0,1.0
15-12-2023 13:00,,,3.5,3.5
15-12-2023 14:00,4.0,,4.5,4.25
15-12-2023 15:00,0.5,,2.5,1.5
15-12-2023 16:00,,,2.5,2.5
15-12-2023 17:00,,,11.0,11.0
15-12-2023 20:00,,,43.0,43.0
15-12-2023 21:00,,,11.5,11.5
15-12-2023 22:00,0.5,,85.0,42.75
15-12-2023 23:00,,,75.5,75.5
15-12-2024 09:00,,1.0,,1.0
16-04-2025 12:00,,,51.0,51.0
16-04-2025 13:00,,,5.0,5.0
16-04-2025 14:00,,,0.5,0.5
16-05-2023 05:00,0.5,,,0.5
16-05-2024 07:00,1.0,,0.5,0.75
16-05-2024 08:00,0.5,,1.0,0.75
16-05-2024 11:00,,,0.5,0.5
16-05-2024 12:00,1.0,,1.5,1.25
16-05-2024 13:00,2.0,,2.0,2.0
16-05-2024 14:00,0.5,,1.0,0.75
16-05-2024 15:00,0.5,,0.5,0.5
16-05-2024 19:00,,,0.5,0.5
16-06-2024 23:00,,,1.5,1.5
16-08-2021 07:00,,,0.5,0.5
16-08-2021 09:00,0.5,,,0.5
16-08-2023 03:00,1.0,8.0,,4.5
16-08-2023 22:00,,0.5,,0.5
16-08-2023 23:00,0.5,3.0,,1.75
16-08-2025 16:00,,,2.0,2.0
16-08-2025 17:00,,,2.5,2.5
16-08-2025 21:00,,,3.0,3.0
16-09-2022 19:00,,0.5,,0.5
16-09-2022 20:00,,1.5,,1.5
16-09-2022 22:00,,1.0,,1.0
16-09-2022 23:00,,1.0,,1.0
16-09-2023 00:00,,9.0,,9.0
16-09-2023 16:00,11.0,1.0,0.5,4.166666666666667
16-09-2023 17:00,2.5,,6.5,4.5
16-09-2023 18:00,,,3.5,3.5
16-09-2023 19:00,0.5,0.5,,0.5
16-09-2023 22:00,22.5,7.5,10.5,13.5
16-09-2023 23:00,2.5,2.0,2.0,2.1666666666666665
16-09-2025 03:00,,,2.5,2.5
16-09-2025 04:00,65.5,18.5,38.5,40.833333333333336
16-09-2025 05:00,2.0,5.5,4.0,3.8333333333333335
16-09-2025 06:00,1.0,2.0,,1.5
16-09-2025 09:00,,,0.5,0.5
16-10-2022 00:00,,3.5,,3.5
16-10-2022 06:00,,1.5,,1.5
16-10-2022 08:00,,2.0,1.5,1.75
16-10-2022 10:00,,1.5,,1.5
16-10-2022 17:00,,0.5,,0.5
16-10-2022 19:00,,0.5,,0.5
16-10-2024 00:00,,,1.5,1.5
16-10-2024 01:00,0.5,,0.5,0.5
16-10-2024 02:00,1.0,,1.0,1.0
16-10-2024 03:00,1.0,,0.5,0.75
16-10-2024 04:00,,,1.0,1.0
16-10-2024 05:00,1.0,,0.5,0.75
16-10-2024 06:00,0.5,,0.5,0.5
16-10-2024 07:00,1.0,,3.0,2.0
16-10-2024 08:00,0.5,,1.0,0.75
16-10-2025 19:00,,15.0,0.5,7.75
16-10-2025 20:00,,2.0,1.5,1.75
16-10-2025 21:00,,1.0,2.5,1.75
16-11-2022 16:00,,0.5,,0.5
16-11-2022 17:00,4.5,4.0,,4.25
16-11-2022 18:00,,5.0,,5.0
16-11-2022 19:00,,3.5,,3.5
16-11-2023 12:00,,27.0,,27.0
16-11-2024 01:00,1.0,,17.0,9.0
16-11-2024 08:00,1.0,,,1.0
16-11-2024 13:00,,,0.5,0.5
16-11-2024 14:00,,0.5,,0.5
16-11-2024 17:00,0.5,,,0.5
16-11-2024 18:00,4.0,1.0,,2.5
16-11-2024 19:00,0.5,,,0.5
16-12-2022 03:00,,1.0,,1.0
16-12-2023 00:00,,,4.0,4.0
16-12-2023 01:00,,,13.5,13.5
16-12-2023 02:00,,,5.0,5.0
16-12-2023 03:00,,,0.5,0.5
16-12-2023 04:00,,,7.0,7.0
16-12-2023 05:00,,,2.0,2.0
16-12-2023 06:00,,,2.5,2.5
16-12-2023 07:00,,,1.0,1.0
16-12-2023 08:00,0.5,,0.5,0.5
16-12-2023 09:00,,,1.0,1.0
16-12-2023 11:00,,,1.0,1.0
16-12-2023 12:00,,,4.0,4.0
16-12-2023 13:00,,,0.5,0.5
16-12-2023 14:00,,,0.5,0.5
16-12-2024 00:00,,1.0,,1.0
16-12-2025 11:00,,,3.5,3.5
16-12-2025 12:00,,,0.5,0.5
16-12-2025 13:00,,,1.0,1.0
16-12-2025 14:00,,,7.0,7.0
16-12-2025 18:00,,,0.5,0.5
17-01-2022 06:00,,0.5,,0.5
17-01-2022 07:00,2.0,,,2.0
17-01-2022 08:00,1.5,,2.0,1.75
17-01-2022 09:00,2.0,,,2.0
17-01-2022 10:00,,1.0,5.0,3.0
17-01-2022 11:00,1.5,,,1.5
17-01-2022 16:00,1.5,,,1.5
17-03-2023 05:00,,3.0,,3.0
17-03-2023 06:00,,0.5,,0.5
17-03-2023 11:00,,0.5,,0.5
17-03-2023 12:00,,1.0,,1.0
17-03-2023 13:00,1.0,,,1.0
17-03-2023 14:00,1.0,,1.5,1.25
17-03-2023 15:00,0.5,,,0.5
17-03-2023 16:00,0.5,,,0.5
17-04-2025 12:00,,1.0,,1.0
17-04-2025 13:00,3.0,,,3.0
17-05-2024 11:00,,,14.0,14.0
17-05-2024 12:00,,,1.5,1.5
17-06-2024 10:00,,,0.5,0.5
17-08-2021 03:00,21.0,,11.0,16.0
17-08-2021 04:00,9.5,,19.5,14.5
17-08-2021 05:00,4.5,,1.5,3.0
17-08-2021 06:00,1.5,,1.0,1.25
17-08-2022 05:00,,,4.0,4.0
17-08-2023 00:00,,0.5,,0.5
17-08-2023 02:00,,1.0,,1.0
17-08-2023 18:00,,,1.0,1.0
17-08-2023 19:00,1.5,0.5,15.0,5.666666666666667
17-08-2023 20:00,,9.5,1.5,5.5
17-08-2023 21:00,0.5,,0.5,0.5
17-08-2023 22:00,1.5,,15.0,8.25
17-08-2023 23:00,36.0,3.0,17.5,18.833333333333332
17-08-2025 19:00,,,1.0,1.0
17-08-2025 20:00,,,0.5,0.5
17-08-2025 21:00,,,2.0,2.0
17-08-2025 22:00,,,1.0,1.0
17-08-2025 23:00,,,0.5,0.5
17-09-2021 16:00,7.0,,1.0,4.0
17-09-2022 00:00,,1.0,,1.0
17-09-2022 01:00,,0.5,,0.5
17-09-2022 02:00,,0.5,,0.5
17-09-2022 04:00,,0.5,,0.5
17-09-2022 06:00,,0.5,,0.5
17-09-2022 14:00,,0.5,,0.5
17-09-2022 18:00,,0.5,,0.5
17-09-2022 23:00,,0.5,,0.5
17-09-2023 00:00,2.0,2.0,4.0,2.6666666666666665
17-09-2023 01:00,3.0,2.0,3.0,2.6666666666666665
17-09-2023 02:00,1.0,,1.0,1.0
17-09-2023 03:00,0.5,,1.0,0.75
17-09-2023 04:00,,,0.5,0.5
17-09-2023 06:00,,,0.5,0.5
17-09-2025 03:00,,2.5,,2.5
17-09-2025 04:00,28.0,3.5,,15.75
17-09-2025 05:00,6.0,1.0,0.5,2.5
17-09-2025 06:00,,0.5,,0.5
17-09-2025 07:00,,0.5,,0.5
17-10-2022 00:00,,0.5,,0.5
17-10-2022 01:00,0.5,0.5,,0.5
17-10-2022 03:00,,0.5,,0.5
17-10-2022 09:00,5.5,,,5.5
17-10-2022 11:00,,1.0,,1.0
17-10-2022 12:00,,2.0,,2.0
17-10-2024 12:00,,19.0,,19.0
17-10-2025 01:00,0.5,,4.5,2.5
17-10-2025 02:00,24.0,,9.5,16.75
17-10-2025 03:00,2.5,,,2.5
17-10-2025 04:00,0.5,,3.0,1.75
17-10-2025 05:00,0.5,0.5,,0.5
17-10-2025 06:00,1.5,2.0,1.0,1.5
17-10-2025 07:00,0.5,,2.5,1.5
17-10-2025 08:00,0.5,,1.5,1.0
17-10-2025 09:00,2.0,,12.0,7.0
17-10-2025 12:00,,0.5,,0.5
17-10-2025 15:00,9.5,0.5,1.5,3.8333333333333335
17-10-2025 16:00,,1.5,,1.5
17-10-2025 17:00,,2.5,,2.5
17-10-2025 18:00,,2.0,,2.0
17-10-2025 19:00,,,1.0,1.0
17-10-2025 22:00,,,5.5,5.5
17-10-2025 23:00,12.0,,11.0,11.5
17-11-2021 00:00,1.0,,,1.0
17-11-2021 13:00,1.0,,,1.0
17-11-2021 14:00,1.0,,1.0,1.0
17-11-2021 15:00,,,6.5,6.5
17-11-2021 16:00,2.0,,0.5,1.25
17-11-2021 21:00,5.0,,5.0,5.0
17-11-2021 22:00,,,0.5,0.5
17-11-2021 23:00,,,2.5,2.5
17-11-2023 12:00,,,3.5,3.5
17-11-2023 13:00,1.5,,,1.5
17-11-2025 04:00,1.0,,,1.0
17-11-2025 07:00,0.5,,,0.5
17-11-2025 08:00,,,0.5,0.5
17-11-2025 12:00,0.5,,1.5,1.0
17-11-2025 14:00,,,0.5,0.5
17-11-2025 15:00,1.5,,2.0,1.75
17-11-2025 16:00,0.5,,1.0,0.75
17-11-2025 17:00,,1.0,,1.0
17-11-2025 19:00,0.5,,0.5,0.5
17-11-2025 21:00,0.5,,0.5,0.5
17-11-2025 22:00,,,0.5,0.5
17-12-2023 02:00,,,1.0,1.0
17-12-2023 10:00,,,0.5,0.5
17-12-2023 15:00,,,0.5,0.5
18-01-2025 21:00,,1.0,,1.0
18-01-2025 22:00,0.5,0.5,1.0,0.6666666666666666
18-01-2025 23:00,,6.0,,6.0
18-03-2023 03:00,0.5,,2.0,1.25
18-03-2023 04:00,,,11.0,11.0
18-03-2023 05:00,,,0.5,0.5
18-03-2023 13:00,0.5,,0.5,0.5
18-03-2023 14:00,0.5,,,0.5
18-03-2023 15:00,,,0.5,0.5
18-06-2022 05:00,,,1.5,1.5
18-06-2022 06:00,5.5,,,5.5
18-06-2023 10:00,,1.0,1.5,1.25
18-06-2023 11:00,,1.0,2.0,1.5
18-06-2023 12:00,,0.5,1.0,0.75
18-06-2023 13:00,0.5,0.5,,0.5
18-06-2023 14:00,0.5,,,0.5
18-06-2023 15:00,0.5,,,0.5
18-06-2023 17:00,0.5,,,0.5
18-06-2023 19:00,0.5,,,0.5
18-06-2023 21:00,0.5,,,0.5
18-06-2023 23:00,,,0.5,0.5
18-06-2024 02:00,3.0,,5.5,4.25
18-06-2024 03:00,10.5,,31.5,21.0
18-06-2024 04:00,1.5,,3.5,2.5
18-06-2024 05:00,0.5,,,0.5
18-06-2024 22:00,4.5,,,4.5
18-06-2024 23:00,48.0,1.0,30.5,26.5
18-07-2024 18:00,,,10.0,10.0
18-07-2024 19:00,0.5,,1.0,0.75
18-08-2022 01:00,,1.5,2.0,1.75
18-08-2023 00:00,4.0,0.5,1.0,1.8333333333333333
18-08-2023 01:00,7.0,,2.0,4.5
18-08-2023 04:00,0.5,,,0.5
18-09-2021 00:00,7.0,,,7.0
18-09-2021 01:00,1.0,,,1.0
18-09-2022 23:00,,0.5,,0.5
18-09-2023 01:00,,7.0,,7.0
18-09-2023 18:00,1.0,3.0,17.0,7.0
18-09-2023 19:00,,,0.5,0.5
18-09-2025 16:00,,1.0,,1.0
18-09-2025 18:00,,1.0,,1.0
18-09-2025 19:00,1.0,15.5,1.5,6.0
18-09-2025 20:00,1.5,4.5,19.0,8.333333333333334
18-09-2025 21:00,1.0,,3.0,2.0
18-09-2025 22:00,,,0.5,0.5
18-10-2024 03:00,,,3.0,3.0
18-10-2024 07:00,9.0,,13.0,11.0
18-10-2024 08:00,8.5,,,8.5
18-10-2025 00:00,7.0,,1.0,4.0
18-10-2025 01:00,10.5,,0.5,5.5
18-10-2025 07:00,,4.0,2.0,3.0
18-10-2025 09:00,,,0.5,0.5
18-10-2025 10:00,,1.0,,1.0
18-10-2025 11:00,0.5,,0.5,0.5
18-10-2025 12:00,2.0,,1.0,1.5
18-10-2025 13:00,1.0,,1.0,1.0
18-10-2025 14:00,0.5,,0.5,0.5
18-11-2021 02:00,8.5,,,8.5
18-11-2021 03:00,2.5,,,2.5
18-11-2021 04:00,1.0,,,1.0
18-11-2021 09:00,2.5,,3.5,3.0
18-11-2021 11:00,13.5,,11.5,12.5
18-11-2021 12:00,5.0,,8.5,6.75
18-11-2021 13:00,,,1.5,1.5
18-11-2021 14:00,6.0,,0.5,3.25
18-11-2021 15:00,0.5,,,0.5
18-11-2021 16:00,1.5,,3.5,2.5
18-11-2021 17:00,4.5,,2.5,3.5
18-11-2021 18:00,2.0,,1.5,1.75
18-11-2021 21:00,3.5,,,3.5
18-11-2021 22:00,5.0,,0.5,2.75
18-11-2025 00:00,0.5,,1.0,0.75
18-11-2025 07:00,,,0.5,0.5
18-11-2025 13:00,0.5,1.0,,0.75
18-11-2025 14:00,,1.0,1.0,1.0
18-11-2025 16:00,3.0,,0.5,1.75
18-11-2025 17:00,3.0,6.0,4.0,4.333333333333333
18-11-2025 19:00,1.5,,0.5,1.0
18-11-2025 20:00,3.0,,2.5,2.75
18-12-2022 12:00,,4.5,,4.5
18-12-2023 10:00,,,0.5,0.5
18-12-2024 11:00,1.0,,0.5,0.75
18-12-2024 12:00,0.5,0.5,0.5,0.5
18-12-2024 13:00,2.0,1.0,2.0,1.6666666666666667
18-12-2024 14:00,5.5,1.5,,3.5
18-12-2024 15:00,7.5,,4.5,6.0
18-12-2024 16:00,13.0,4.5,13.0,10.166666666666666
18-12-2024 17:00,2.5,1.0,5.0,2.8333333333333335
18-12-2024 18:00,,,0.5,0.5
18-12-2024 20:00,,1.0,,1.0
18-12-2024 21:00,0.5,,,0.5
18-12-2024 22:00,,1.5,0.5,1.0
18-12-2024 23:00,,0.5,,0.5
19-01-2025 00:00,0.5,1.5,0.5,0.8333333333333334
19-01-2025 02:00,,,1.5,1.5
19-01-2025 03:00,0.5,,0.5,0.5
19-01-2025 04:00,2.5,,,2.5
19-01-2025 05:00,7.0,,,7.0
19-01-2025 06:00,,,4.0,4.0
19-01-2025 07:00,0.5,,,0.5
19-01-2025 10:00,,,0.5,0.5
19-01-2025 13:00,,20.0,,20.0
19-01-2025 15:00,,0.5,,0.5
19-03-2023 07:00,0.5,,,0.5
19-03-2023 08:00,,0.5,,0.5
19-03-2023 13:00,,,1.0,1.0
19-03-2025 16:00,,2.5,,2.5
19-03-2025 17:00,,0.5,,0.5
19-04-2025 18:00,,0.5,,0.5
19-05-2024 01:00,6.0,,,6.0
19-05-2024 02:00,5.0,10.5,,7.75
19-05-2025 02:00,,,3.5,3.5
19-05-2025 03:00,,,0.5,0.5
19-05-2025 06:00,0.5,,,0.5
19-05-2025 07:00,0.5,,,0.5
19-05-2025 08:00,3.0,,2.0,2.5
19-05-2025 09:00,3.5,,5.0,4.25
19-05-2025 10:00,,,1.0,1.0
19-06-2022 21:00,0.5,,,0.5
19-06-2022 22:00,,15.5,,15.5
19-06-2022 23:00,12.5,10.5,11.5,11.5
19-06-2023 00:00,,7.0,,7.0
19-06-2023 01:00,,2.0,0.5,1.25
19-06-2023 02:00,,1.0,5.5,3.25
19-06-2023 03:00,,12.0,32.0,22.0
19-06-2023 04:00,,11.0,46.0,28.5
19-06-2023 05:00,,1.5,12.5,7.0
19-06-2023 06:00,,0.5,11.5,6.0
19-06-2023 07:00,,5.0,19.0,12.0
19-06-2023 08:00,,0.5,1.0,0.75
19-06-2023 09:00,,1.0,5.0,3.0
19-06-2023 10:00,,2.5,3.0,2.75
19-06-2023 11:00,,1.5,2.0,1.75
19-06-2023 12:00,3.0,,0.5,1.75
19-06-2023 13:00,2.5,0.5,2.0,1.6666666666666667
19-06-2023 14:00,2.0,5.5,,3.75
19-06-2023 15:00,2.0,,,2.0
19-06-2023 16:00,,,4.0,4.0
19-06-2023 17:00,,,0.5,0.5
19-06-2023 19:00,,0.5,,0.5
19-06-2023 20:00,,,1.0,1.0
19-06-2023 21:00,,,3.0,3.0
19-06-2023 22:00,,,6.0,6.0
19-06-2023 23:00,,,25.5,25.5
19-06-2024 00:00,0.5,,1.0,0.75
19-06-2024 01:00,1.0,,0.5,0.75
19-06-2024 02:00,,,0.5,0.5
19-06-2024 16:00,,,2.0,2.0
19-07-2024 14:00,1.0,,,1.0
19-08-2023 20:00,1.0,16.5,,8.75
19-08-2023 21:00,2.0,,,2.0
19-09-2022 06:00,,0.5,,0.5
19-09-2023 01:00,5.0,7.5,,6.25
19-09-2023 02:00,3.0,1.0,,2.0
19-09-2023 03:00,1.0,1.5,,1.25
19-09-2023 04:00,1.0,,,1.0
19-10-2024 04:00,37.5,,18.5,28.0
19-10-2024 05:00,0.5,,,0.5
19-10-2025 03:00,3.0,,0.5,1.75
19-10-2025 07:00,1.0,,1.0,1.0
19-10-2025 10:00,1.0,,1.0,1.0
19-10-2025 11:00,1.5,,1.5,1.5
19-10-2025 12:00,,1.0,,1.0
19-11-2021 04:00,,,0.5,0.5
19-11-2021 05:00,,,2.0,2.0
19-11-2021 06:00,0.5,,,0.5
19-11-2021 10:00,,,0.5,0.5
19-11-2021 13:00,,,1.0,1.0
19-11-2021 14:00,,,4.0,4.0
19-11-2021 15:00,,,0.5,0.5
19-11-2021 16:00,1.0,,0.5,0.75
19-11-2021 17:00,0.5,,,0.5
19-11-2025 01:00,,,0.5,0.5
19-12-2024 01:00,0.5,,,0.5
19-12-2024 02:00,0.5,0.5,0.5,0.5
19-12-2024 03:00,0.5,,0.5,0.5
19-12-2024 05:00,,1.0,,1.0
19-12-2024 08:00,1.5,,1.0,1.25
19-12-2024 09:00,4.0,,1.5,2.75
20-01-2025 11:00,,0.5,,0.5
20-03-2023 02:00,0.5,,6.5,3.5
20-03-2023 03:00,1.5,,,1.5
20-03-2023 04:00,1.0,7.0,0.5,2.8333333333333335
20-03-2023 05:00,1.0,7.5,1.0,3.1666666666666665
20-03-2023 06:00,0.5,,,0.5
20-03-2023 07:00,1.0,,,1.0
20-03-2023 08:00,0.5,,,0.5
20-03-2023 09:00,0.5,,,0.5
20-03-2023 10:00,0.5,,,0.5
20-03-2023 11:00,0.5,,,0.5
20-03-2023 12:00,0.5,,,0.5
20-03-2023 13:00,0.5,,,0.5
20-03-2023 14:00,0.5,,,0.5
20-03-2023 15:00,0.5,,,0.5
20-03-2023 17:00,0.5,,,0.5
20-03-2023 18:00,,41.5,,41.5
20-03-2023 19:00,0.5,1.0,,0.75
20-03-2023 21:00,0.5,,,0.5
20-03-2025 02:00,,0.5,,0.5
20-05-2024 05:00,0.5,,,0.5
20-05-2024 06:00,0.5,,,0.5
20-05-2024 07:00,,,5.5,5.5
20-05-2024 08:00,,,0.5,0.5
20-05-2024 09:00,,0.5,,0.5
20-05-2025 06:00,0.5,,,0.5
20-05-2025 08:00,0.5,,0.5,0.5
20-05-2025 19:00,,,0.5,0.5
20-06-2022 00:00,27.0,1.0,46.5,24.833333333333332
20-06-2022 01:00,10.5,1.0,30.0,13.833333333333334
20-06-2022 02:00,,1.0,,1.0
20-06-2022 03:00,25.0,,18.5,21.75
20-06-2022 04:00,1.0,5.5,0.5,2.3333333333333335
20-06-2022 05:00,,0.5,,0.5
20-06-2022 19:00,4.5,1.0,10.0,5.166666666666667
20-06-2022 20:00,,,11.5,11.5
20-06-2022 21:00,,0.5,,0.5
20-06-2022 23:00,7.0,63.0,5.5,25.166666666666668
20-06-2023 00:00,,1.5,14.0,7.75
20-06-2023 01:00,,9.5,10.5,10.0
20-06-2023 02:00,,1.5,0.5,1.0
20-06-2023 06:00,,1.0,,1.0
20-06-2023 07:00,,2.5,2.0,2.25
20-06-2023 08:00,,,0.5,0.5
20-06-2023 09:00,1.0,,,1.0
20-06-2023 10:00,0.5,,,0.5
20-06-2023 11:00,1.0,,,1.0
20-06-2023 12:00,0.5,,,0.5
20-06-2023 13:00,1.0,,,1.0
20-06-2023 14:00,1.0,,,1.0
20-06-2023 15:00,1.0,,,1.0
20-06-2023 16:00,1.0,,,1.0
20-06-2023 17:00,0.5,,,0.5
20-06-2023 18:00,1.0,,,1.0
20-06-2023 19:00,0.5,,,0.5
20-06-2023 20:00,1.0,,,1.0
20-06-2023 21:00,0.5,,,0.5
20-06-2023 22:00,1.0,,,1.0
20-06-2023 23:00,0.5,,0.5,0.5
20-06-2024 22:00,24.5,,3.0,13.75
20-08-2021 03:00,,,2.0,2.0
20-08-2022 20:00,,,3.0,3.0
20-08-2025 07:00,,0.5,,0.5
20-09-2022 00:00,,0.5,,0.5
20-09-2022 22:00,,0.5,,0.5
20-09-2025 02:00,29.5,,6.5,18.0
20-09-2025 03:00,2.5,,5.5,4.0
20-09-2025 04:00,2.0,,2.0,2.0
20-09-2025 05:00,,,0.5,0.5
20-09-2025 06:00,0.5,,0.5,0.5
20-09-2025 07:00,,,1.0,1.0
20-09-2025 08:00,0.5,,1.0,0.75
20-09-2025 09:00,,,0.5,0.5
20-10-2022 18:00,2.5,,0.5,1.5
20-10-2024 04:00,,,11.5,11.5
20-10-2024 05:00,26.5,,17.5,22.0
20-10-2024 06:00,1.5,,,1.5
20-10-2024 11:00,,,1.0,1.0
20-10-2025 00:00,1.5,0.5,8.5,3.5
20-10-2025 01:00,,,1.5,1.5
20-10-2025 03:00,,,10.0,10.0
20-10-2025 06:00,0.5,,0.5,0.5
20-10-2025 09:00,7.5,5.0,13.5,8.666666666666666
20-10-2025 10:00,,1.0,,1.0
20-10-2025 13:00,,5.0,,5.0
20-10-2025 14:00,1.0,2.0,0.5,1.1666666666666667
20-10-2025 15:00,,2.0,,2.0
20-11-2021 03:00,0.5,,,0.5
20-11-2021 04:00,,,3.0,3.0
20-11-2021 05:00,0.5,,1.0,0.75
20-11-2021 06:00,1.5,,2.5,2.0
20-11-2021 08:00,,,1.0,1.0
20-11-2021 09:00,1.5,,1.5,1.5
20-11-2021 10:00,1.0,,0.5,0.75
20-11-2023 12:00,4.0,,0.5,2.25
20-11-2023 13:00,3.0,8.0,1.5,4.166666666666667
20-11-2023 14:00,0.5,,0.5,0.5
20-11-2023 15:00,1.0,,0.5,0.75
20-11-2023 17:00,1.0,,1.0,1.0
20-11-2023 18:00,1.0,,0.5,0.75
20-11-2023 19:00,0.5,,1.0,0.75
20-11-2023 20:00,5.0,,3.0,4.0
20-11-2023 21:00,0.5,,,0.5
20-12-2024 06:00,,,0.5,0.5
20-12-2024 07:00,3.0,67.5,,35.25
20-12-2024 12:00,,10.0,,10.0
20-12-2024 18:00,,1.5,,1.5
20-12-2024 19:00,,3.0,,3.0
20-12-2024 21:00,,2.5,,2.5
20-12-2024 23:00,,4.0,,4.0
21-03-2023 00:00,0.5,,,0.5
21-03-2023 03:00,0.5,,,0.5
21-03-2023 08:00,0.5,,,0.5
21-03-2023 12:00,0.5,,,0.5
21-03-2023 17:00,0.5,,,0.5
21-05-2024 04:00,0.5,,,0.5
21-05-2024 05:00,1.5,1.0,,1.25
21-05-2024 07:00,,,0.5,0.5
21-05-2024 15:00,0.5,,,0.5
21-05-2024 16:00,,,3.5,3.5
21-05-2024 18:00,0.5,,,0.5
21-05-2025 01:00,,,0.5,0.5
21-06-2022 00:00,19.0,1.5,20.5,13.666666666666666
21-06-2022 01:00,1.5,1.0,1.0,1.1666666666666667
21-06-2022 02:00,1.5,4.0,1.5,2.3333333333333335
21-06-2022 03:00,,1.0,1.0,1.0
21-06-2022 17:00,,8.5,,8.5
21-06-2022 18:00,0.5,2.5,1.0,1.3333333333333333
21-06-2022 23:00,2.0,37.0,,19.5
21-06-2023 00:00,1.0,,7.0,4.0
21-06-2023 01:00,,,0.5,0.5
21-06-2023 02:00,,,1.0,1.0
21-06-2023 03:00,,3.5,1.5,2.5
21-06-2023 04:00,,1.5,,1.5
21-06-2023 05:00,,0.5,,0.5
21-06-2023 09:00,0.5,,,0.5
21-06-2023 10:00,1.0,,,1.0
21-06-2023 11:00,0.5,,,0.5
21-06-2023 12:00,0.5,,,0.5
21-06-2023 13:00,0.5,,,0.5
21-06-2023 14:00,1.0,,,1.0
21-06-2023 15:00,0.5,,,0.5
21-06-2023 16:00,0.5,,,0.5
21-06-2023 17:00,0.5,,,0.5
21-06-2023 18:00,1.0,,,1.0
21-06-2023 19:00,0.5,,,0.5
21-06-2023 20:00,0.5,,,0.5
21-06-2023 21:00,0.5,,,0.5
21-06-2023 22:00,0.5,,,0.5
21-06-2023 23:00,0.5,,,0.5
21-06-2024 19:00,,,0.5,0.5
21-08-2022 21:00,,4.5,37.0,20.75
21-08-2022 22:00,,1.5,1.0,1.25
21-08-2022 23:00,,0.5,,0.5
21-09-2021 15:00,18.5,,2.5,10.5
21-09-2021 16:00,2.5,,,2.5
21-09-2021 17:00,,,5.5,5.5
21-09-2021 23:00,14.0,,,14.0
21-09-2022 11:00,,0.5,,0.5
21-09-2023 07:00,5.0,,10.5,7.75
21-09-2023 08:00,4.0,,8.0,6.0
21-09-2023 09:00,2.0,2.0,1.5,1.8333333333333333
21-09-2024 00:00,,,8.5,8.5
21-09-2024 01:00,6.0,1.0,5.5,4.166666666666667
21-09-2024 02:00,1.5,,,1.5
21-09-2024 03:00,,,3.0,3.0
21-09-2024 04:00,1.0,1.0,6.5,2.8333333333333335
21-09-2024 05:00,1.5,1.0,3.0,1.8333333333333333
21-09-2024 06:00,2.5,1.5,2.0,2.0
21-09-2024 07:00,1.5,0.5,1.0,1.0
21-09-2025 17:00,,0.5,,0.5
21-09-2025 23:00,,,2.0,2.0
21-10-2022 02:00,0.5,,,0.5
21-10-2022 04:00,,5.5,,5.5
21-10-2022 05:00,,2.5,,2.5
21-10-2022 06:00,3.5,,,3.5
21-10-2022 07:00,29.5,,14.5,22.0
21-10-2023 05:00,3.5,,,3.5
21-10-2024 06:00,0.5,,1.0,0.75
21-10-2024 10:00,,,0.5,0.5
21-10-2025 00:00,,,1.0,1.0
21-10-2025 04:00,,,0.5,0.5
21-10-2025 06:00,3.0,,5.5,4.25
21-10-2025 08:00,,0.5,16.0,8.25
21-10-2025 09:00,1.5,,2.0,1.75
21-10-2025 10:00,0.5,3.5,0.5,1.5
21-10-2025 11:00,,1.0,,1.0
21-10-2025 12:00,,1.0,0.5,0.75
21-10-2025 13:00,15.0,4.0,14.0,11.0
21-10-2025 14:00,0.5,,,0.5
21-10-2025 15:00,1.5,,7.5,4.5
21-10-2025 17:00,3.0,,0.5,1.75
21-10-2025 18:00,5.5,,1.0,3.25
21-10-2025 20:00,,,0.5,0.5
21-10-2025 23:00,2.0,,3.5,2.75
21-11-2022 05:00,,1.5,,1.5
21-11-2022 20:00,,,0.5,0.5
21-11-2022 21:00,1.0,,1.0,1.0
21-11-2022 22:00,0.5,,1.0,0.75
21-11-2022 23:00,0.5,,1.0,0.75
21-11-2023 01:00,31.0,,2.5,16.75
21-11-2023 02:00,3.5,,1.0,2.25
21-11-2023 03:00,12.0,,2.0,7.0
21-11-2023 04:00,20.5,,11.0,15.75
21-11-2023 05:00,1.0,,1.0,1.0
21-11-2023 06:00,1.5,,0.5,1.0
21-11-2023 10:00,0.5,,0.5,0.5
21-11-2023 11:00,0.5,,,0.5
21-11-2023 12:00,1.0,,0.5,0.75
21-11-2023 13:00,2.5,,3.5,3.0
21-11-2023 14:00,2.0,,2.0,2.0
21-11-2023 20:00,0.5,,1.0,0.75
21-11-2023 21:00,4.0,,4.5,4.25
21-11-2023 22:00,3.0,,2.0,2.5
21-11-2023 23:00,5.5,,5.0,5.25
21-11-2025 03:00,1.0,,0.5,0.75
21-11-2025 04:00,,,0.5,0.5
21-11-2025 06:00,2.5,,4.5,3.5
21-11-2025 11:00,,0.5,,0.5
21-11-2025 12:00,,0.5,,0.5
21-11-2025 16:00,0.5,3.0,1.0,1.5
21-11-2025 17:00,,,1.0,1.0
21-11-2025 18:00,,,0.5,0.5
21-11-2025 19:00,,0.5,,0.5
21-11-2025 20:00,0.5,,0.5,0.5
21-11-2025 22:00,0.5,3.0,1.0,1.5
21-11-2025 23:00,0.5,,,0.5
21-12-2022 14:00,,1.0,,1.0
21-12-2024 03:00,,2.5,,2.5
21-12-2024 04:00,,9.5,,9.5
22-03-2023 00:00,0.5,,,0.5
22-03-2023 09:00,0.5,,,0.5
22-03-2023 19:00,0.5,,,0.5
22-03-2025 15:00,,10.5,,10.5
22-04-2023 15:00,,9.0,,9.0
22-05-2024 03:00,,1.0,,1.0
22-05-2024 11:00,0.5,,,0.5
22-05-2024 12:00,2.0,,,2.0
22-05-2024 19:00,,0.5,,0.5
22-05-2024 20:00,0.5,,,0.5
22-05-2024 23:00,,0.5,,0.5
22-06-2022 00:00,19.5,1.0,13.0,11.166666666666666
22-06-2022 01:00,7.5,1.0,2.5,3.6666666666666665
22-06-2022 02:00,,2.0,,2.0
22-06-2022 03:00,,2.0,,2.0
22-06-2022 04:00,,0.5,0.5,0.5
22-06-2023 00:00,0.5,,,0.5
22-06-2023 01:00,0.5,,,0.5
22-06-2023 02:00,0.5,,,0.5
22-06-2023 04:00,0.5,,,0.5
22-06-2023 09:00,0.5,,,0.5
22-06-2023 11:00,0.5,,,0.5
22-06-2023 12:00,0.5,,,0.5
22-06-2023 13:00,0.5,,,0.5
22-06-2023 14:00,0.5,,,0.5
22-06-2023 15:00,0.5,,,0.5
22-06-2023 16:00,0.5,1.5,0.5,0.8333333333333334
22-06-2023 17:00,0.5,,1.5,1.0
22-06-2023 19:00,0.5,,,0.5
22-06-2023 20:00,0.5,,,0.5
22-06-2023 21:00,0.5,,,0.5
22-07-2023 21:00,4.0,5.0,1.5,3.5
22-07-2023 22:00,2.5,3.5,1.0,2.3333333333333335
22-07-2023 23:00,0.5,1.5,,1.0
22-08-2022 00:00,,0.5,0.5,0.5
22-08-2022 16:00,,,0.5,0.5
22-08-2022 23:00,,0.5,,0.5
22-08-2023 08:00,3.5,,,3.5
22-08-2023 09:00,0.5,,,0.5
22-08-2025 05:00,2.5,0.5,,1.5
22-08-2025 06:00,26.5,,55.0,40.75
22-08-2025 07:00,3.5,,7.5,5.5
22-08-2025 20:00,,4.0,0.5,2.25
22-08-2025 21:00,,,0.5,0.5
22-09-2021 03:00,37.0,,,37.0
22-09-2021 04:00,8.0,,,8.0
22-09-2021 05:00,5.5,,,5.5
22-09-2021 06:00,2.0,,,2.0
22-09-2021 07:00,2.5,,,2.5
22-09-2022 01:00,,0.5,,0.5
22-09-2022 17:00,,0.5,,0.5
22-09-2025 02:00,,1.0,0.5,0.75
22-09-2025 03:00,,0.5,,0.5
22-09-2025 04:00,,1.5,,1.5
22-09-2025 05:00,,0.5,,0.5
22-09-2025 23:00,1.0,,,1.0
22-10-2022 01:00,,,0.5,0.5
22-10-2022 04:00,1.5,,,1.5
22-10-2022 15:00,3.0,,1.0,2.0
22-10-2022 16:00,2.0,,0.5,1.25
22-10-2022 21:00,0.5,0.5,0.5,0.5
22-10-2023 07:00,0.5,,,0.5
22-10-2025 03:00,4.5,,8.5,6.5
22-10-2025 04:00,3.5,,0.5,2.0
22-10-2025 07:00,2.0,,7.0,4.5
22-10-2025 08:00,3.5,,,3.5
22-10-2025 11:00,2.0,,,2.0
22-10-2025 12:00,,,0.5,0.5
22-10-2025 14:00,1.5,,,1.5
22-10-2025 23:00,,,1.0,1.0
22-11-2021 06:00,2.5,,,2.5
22-11-2021 07:00,,,12.5,12.5
22-11-2021 08:00,,,2.0,2.0
22-11-2021 09:00,22.0,,11.5,16.75
22-11-2021 10:00,6.0,,3.5,4.75
22-11-2022 00:00,1.5,,1.0,1.25
22-11-2022 07:00,,,0.5,0.5
22-11-2022 11:00,0.5,,,0.5
22-11-2023 00:00,4.0,,4.0,4.0
22-11-2023 01:00,1.0,,1.0,1.0
22-11-2023 02:00,1.0,,,1.0
22-11-2023 03:00,3.0,,1.0,2.0
22-11-2023 04:00,3.5,,2.0,2.75
22-11-2023 06:00,1.0,,0.5,0.75
22-11-2023 07:00,6.0,,,6.0
22-11-2023 08:00,,,0.5,0.5
22-11-2023 09:00,1.5,,1.5,1.5
22-11-2023 10:00,1.0,,0.5,0.75
22-11-2023 14:00,,,0.5,0.5
22-11-2023 21:00,2.0,,,2.0
22-11-2023 22:00,2.5,,0.5,1.5
22-11-2025 00:00,1.0,,,1.0
22-11-2025 03:00,0.5,,0.5,0.5
22-12-2024 06:00,,17.0,,17.0
22-12-2024 07:00,,12.0,,12.0
22-12-2024 08:00,,2.0,,2.0
22-12-2024 09:00,,0.5,,0.5
22-12-2024 10:00,,14.5,,14.5
22-12-2024 19:00,,1.5,,1.5
23-03-2023 08:00,0.5,,,0.5
23-04-2023 22:00,0.5,,,0.5
23-06-2023 11:00,0.5,,,0.5
23-06-2023 13:00,0.5,,,0.5
23-06-2023 15:00,0.5,,,0.5
23-06-2023 17:00,0.5,,,0.5
23-06-2023 20:00,0.5,,,0.5
23-06-2024 22:00,0.5,,,0.5
23-07-2023 12:00,0.5,0.5,,0.5
23-07-2023 13:00,,0.5,,0.5
23-07-2023 15:00,,1.0,,1.0
23-07-2023 16:00,0.5,,0.5,0.5
23-07-2024 20:00,,,2.0,2.0
23-07-2024 21:00,13.5,,4.5,9.0
23-08-2022 04:00,,0.5,,0.5
23-08-2023 02:00,1.5,5.0,,3.25
23-08-2023 03:00,0.5,7.5,38.5,15.5
23-08-2023 04:00,,,0.5,0.5
23-08-2023 05:00,,14.5,1.5,8.0
23-08-2023 06:00,0.5,1.0,,0.75
23-08-2023 07:00,0.5,0.5,,0.5
23-08-2025 03:00,2.5,13.0,27.5,14.333333333333334
23-08-2025 04:00,36.5,15.0,44.5,32.0
23-08-2025 05:00,4.5,5.0,6.5,5.333333333333333
23-08-2025 06:00,3.0,4.0,4.5,3.8333333333333335
23-08-2025 07:00,4.5,2.0,4.0,3.5
23-08-2025 08:00,2.0,1.0,1.0,1.3333333333333333
23-09-2022 08:00,,0.5,,0.5
23-09-2023 20:00,,,0.5,0.5
23-09-2023 21:00,,,10.0,10.0
23-09-2023 22:00,,,4.5,4.5
23-10-2025 00:00,11.5,,,11.5
23-10-2025 01:00,3.5,,2.0,2.75
23-10-2025 02:00,1.0,,1.5,1.25
23-10-2025 03:00,2.0,,2.0,2.0
23-10-2025 04:00,1.0,,0.5,0.75
23-10-2025 06:00,0.5,,0.5,0.5
23-11-2021 02:00,,,1.0,1.0
23-11-2022 00:00,16.5,,,16.5
23-11-2022 01:00,4.0,,0.5,2.25
23-11-2022 02:00,,,0.5,0.5
23-11-2023 07:00,3.5,,0.5,2.0
23-11-2023 08:00,,,0.5,0.5
23-11-2023 09:00,2.5,,2.5,2.5
23-11-2023 10:00,1.0,,2.0,1.5
23-11-2025 03:00,1.0,,,1.0
23-11-2025 04:00,0.5,,,0.5
23-12-2023 11:00,,,0.5,0.5
23-12-2023 15:00,,,0.5,0.5
23-12-2024 05:00,,3.0,,3.0
23-12-2024 06:00,,2.0,,2.0
24-01-2022 04:00,,,4.5,4.5
24-01-2022 05:00,,,1.0,1.0
24-04-2023 02:00,,7.0,,7.0
24-06-2022 23:00,,32.0,,32.0
24-06-2023 02:00,,8.5,,8.5
24-06-2023 03:00,,3.5,4.0,3.75
24-06-2023 10:00,0.5,,,0.5
24-06-2023 20:00,0.5,,,0.5
24-07-2023 19:00,19.0,1.0,17.5,12.5
24-07-2023 20:00,1.0,6.5,1.0,2.8333333333333335
24-07-2023 21:00,5.0,2.5,9.0,5.5
24-07-2023 22:00,2.0,,2.5,2.25
24-08-2022 04:00,,,0.5,0.5
24-08-2022 07:00,,,0.5,0.5
24-08-2022 18:00,,0.5,,0.5
24-08-2022 19:00,,0.5,,0.5
24-08-2022 20:00,,0.5,,0.5
24-08-2023 01:00,11.5,21.0,1.5,11.333333333333334
24-08-2023 02:00,21.0,1.5,20.5,14.333333333333334
24-08-2023 03:00,1.5,2.0,2.0,1.8333333333333333
24-08-2023 04:00,2.5,2.0,1.0,1.8333333333333333
24-08-2023 05:00,4.0,1.0,2.0,2.3333333333333335
24-08-2023 06:00,0.5,0.5,,0.5
24-09-2023 04:00,1.0,,,1.0
24-09-2023 22:00,,,3.5,3.5
24-09-2023 23:00,,,0.5,0.5
24-09-2024 01:00,8.5,,17.5,13.0
24-09-2024 02:00,14.0,,9.5,11.75
24-09-2024 03:00,2.0,,1.0,1.5
24-09-2024 04:00,0.5,,1.0,0.75
24-09-2024 17:00,2.5,,3.0,2.75
24-09-2024 18:00,,,0.5,0.5
24-09-2024 19:00,,,0.5,0.5
24-09-2025 01:00,,,2.5,2.5
24-09-2025 10:00,,,0.5,0.5
24-10-2025 01:00,,,1.0,1.0
24-10-2025 02:00,4.5,,29.0,16.75
24-10-2025 03:00,2.5,,2.0,2.25
24-10-2025 04:00,2.5,,1.0,1.75
24-10-2025 05:00,1.5,,0.5,1.0
24-10-2025 12:00,0.5,,0.5,0.5
24-10-2025 14:00,0.5,,0.5,0.5
24-11-2022 07:00,4.0,,2.5,3.25
24-11-2023 14:00,,,0.5,0.5
24-11-2023 15:00,,,0.5,0.5
24-11-2023 16:00,,,0.5,0.5
24-12-2022 21:00,7.0,,4.5,5.75
24-12-2022 22:00,2.5,0.5,4.0,2.3333333333333335
24-12-2022 23:00,,,2.0,2.0
24-12-2023 19:00,,,0.5,0.5
24-12-2024 09:00,,0.5,0.5,0.5
24-12-2024 10:00,0.5,,,0.5
24-12-2024 11:00,,0.5,,0.5
25-06-2022 00:00,,1.0,,1.0
25-06-2022 04:00,,,0.5,0.5
25-06-2022 20:00,,6.5,,6.5
25-06-2023 14:00,0.5,,,0.5
25-06-2024 21:00,3.5,,,3.5
25-06-2024 22:00,0.5,,,0.5
25-07-2023 10:00,0.5,,,0.5
25-07-2023 14:00,2.5,0.5,,1.5
25-07-2023 15:00,0.5,,0.5,0.5
25-07-2023 17:00,0.5,0.5,,0.5
25-07-2023 19:00,0.5,,0.5,0.5
25-07-2023 21:00,,0.5,,0.5
25-08-2022 02:00,,0.5,,0.5
25-08-2022 06:00,,0.5,,0.5
25-08-2022 10:00,,0.5,,0.5
25-08-2022 14:00,,0.5,,0.5
25-08-2022 18:00,,0.5,,0.5
25-08-2022 23:00,,0.5,,0.5
25-09-2022 01:00,,0.5,,0.5
25-09-2022 22:00,,0.5,,0.5
25-09-2023 03:00,,,0.5,0.5
25-09-2023 04:00,,,6.5,6.5
25-09-2023 05:00,,,0.5,0.5
25-09-2023 06:00,,,0.5,0.5
25-09-2024 18:00,,,7.0,7.0
25-09-2024 19:00,,,0.5,0.5
25-09-2024 22:00,,11.0,,11.0
25-10-2025 07:00,,,1.5,1.5
25-10-2025 08:00,,,1.5,1.5
25-10-2025 09:00,0.5,,0.5,0.5
25-10-2025 14:00,,,15.0,15.0
25-10-2025 15:00,,,0.5,0.5
25-10-2025 17:00,,,2.0,2.0
25-10-2025 18:00,,,1.0,1.0
25-11-2021 00:00,,,0.5,0.5
25-11-2021 06:00,,,1.5,1.5
25-11-2021 07:00,7.5,,19.0,13.25
25-11-2021 08:00,1.0,,0.5,0.75
25-11-2021 13:00,1.0,,,1.0
25-11-2021 19:00,3.5,,2.0,2.75
25-11-2021 20:00,0.5,,0.5,0.5
25-11-2021 21:00,2.5,,5.0,3.75
25-11-2021 22:00,7.5,,21.5,14.5
25-11-2021 23:00,15.5,,,15.5
25-11-2022 06:00,,,1.0,1.0
25-11-2023 04:00,0.5,,4.5,2.5
25-11-2023 05:00,,,31.0,31.0
25-11-2023 06:00,25.0,,30.5,27.75
25-11-2023 07:00,14.0,,4.5,9.25
25-11-2024 23:00,12.0,,5.0,8.5
25-12-2022 02:00,2.0,,1.0,1.5
25-12-2022 03:00,1.0,,,1.0
25-12-2022 04:00,6.0,,1.5,3.75
25-12-2022 05:00,1.0,,2.0,1.5
25-12-2022 06:00,0.5,,,0.5
25-12-2022 07:00,0.5,,2.0,1.25
25-12-2022 08:00,3.5,,4.0,3.75
25-12-2022 09:00,1.5,,1.5,1.5
25-12-2022 10:00,2.5,,1.0,1.75
25-12-2022 11:00,2.5,,1.5,2.0
25-12-2022 12:00,0.5,,0.5,0.5
25-12-2023 01:00,,,1.0,1.0
25-12-2023 08:00,,,0.5,0.5
25-12-2023 10:00,,,0.5,0.5
25-12-2023 12:00,,,0.5,0.5
25-12-2023 20:00,,,0.5,0.5
25-12-2024 10:00,,1.0,,1.0
25-12-2024 16:00,,0.5,,0.5
25-12-2024 17:00,1.0,0.5,0.5,0.6666666666666666
25-12-2024 18:00,,1.0,0.5,0.75
26-03-2025 23:00,,0.5,,0.5
26-06-2023 09:00,0.5,,,0.5
26-06-2023 15:00,0.5,,,0.5
26-06-2023 16:00,0.5,,,0.5
26-06-2023 17:00,0.5,,,0.5
26-06-2023 19:00,0.5,,,0.5
26-06-2023 20:00,0.5,,,0.5
26-07-2023 01:00,,0.5,,0.5
26-07-2023 05:00,0.5,,,0.5
26-07-2023 07:00,0.5,,,0.5
26-07-2023 10:00,,0.5,,0.5
26-08-2022 05:00,,0.5,,0.5
26-08-2022 10:00,,0.5,,0.5
26-08-2022 12:00,,0.5,,0.5
26-08-2022 14:00,,0.5,,0.5
26-08-2022 16:00,,0.5,,0.5
26-08-2022 18:00,,0.5,,0.5
26-08-2022 19:00,,0.5,,0.5
26-08-2022 21:00,,0.5,,0.5
26-08-2022 23:00,,0.5,,0.5
26-08-2023 17:00,,2.0,,2.0
26-08-2023 21:00,,0.5,,0.5
26-09-2022 17:00,,,1.5,1.5
26-09-2023 06:00,,7.0,,7.0
26-09-2023 07:00,,8.0,,8.0
26-09-2023 22:00,0.5,,,0.5
26-09-2023 23:00,,,0.5,0.5
26-09-2025 19:00,2.0,,1.5,1.75
26-09-2025 21:00,1.5,6.5,0.5,2.8333333333333335
26-09-2025 22:00,,1.5,,1.5
26-11-2021 00:00,11.5,,5.0,8.25
26-11-2021 01:00,0.5,,2.0,1.25
26-11-2021 02:00,1.0,,2.0,1.5
26-11-2021 03:00,2.0,,5.0,3.5
26-11-2021 04:00,5.5,,9.5,7.5
26-11-2021 05:00,0.5,,,0.5
26-11-2021 06:00,,,0.5,0.5
26-11-2021 07:00,0.5,,,0.5
26-11-2021 08:00,1.0,,5.5,3.25
26-11-2021 13:00,11.5,,14.0,12.75
26-11-2021 14:00,24.0,,2.5,13.25
26-11-2021 15:00,0.5,,,0.5
26-11-2021 16:00,0.5,,,0.5
26-11-2021 22:00,1.0,,1.5,1.25
26-11-2021 23:00,,,1.0,1.0
26-11-2023 17:00,3.5,,,3.5
26-11-2023 18:00,1.5,,0.5,1.0
26-11-2023 19:00,2.5,,3.5,3.0
26-11-2023 20:00,15.5,,13.5,14.5
26-11-2023 21:00,0.5,,0.5,0.5
26-11-2024 05:00,,,1.0,1.0
26-11-2024 09:00,,0.5,,0.5
26-11-2024 10:00,2.0,,1.0,1.5
26-11-2024 11:00,21.0,,40.5,30.75
26-11-2024 12:00,8.5,20.0,15.0,14.5
26-11-2024 13:00,3.5,,3.0,3.25
26-11-2024 14:00,1.5,,,1.5
26-11-2024 15:00,0.5,,,0.5
26-11-2024 21:00,1.5,,,1.5
26-11-2024 22:00,2.0,,4.5,3.25
26-12-2022 02:00,1.0,,,1.0
26-12-2022 03:00,,,0.5,0.5
26-12-2022 14:00,0.5,,,0.5
26-12-2024 02:00,1.0,,1.0,1.0
26-12-2024 03:00,2.0,,2.5,2.25
26-12-2024 04:00,4.0,,4.0,4.0
26-12-2024 05:00,1.5,,5.0,3.25
26-12-2024 06:00,,,0.5,0.5
26-12-2024 07:00,,0.5,,0.5
26-12-2024 08:00,1.0,,,1.0
26-12-2024 10:00,,2.0,,2.0
26-12-2024 11:00,,14.0,,14.0
26-12-2024 23:00,1.0,,0.5,0.75
27-03-2025 00:00,,0.5,,0.5
27-06-2023 00:00,0.5,,,0.5
27-06-2023 14:00,0.5,,,0.5
27-06-2023 17:00,0.5,,,0.5
27-06-2023 20:00,0.5,,,0.5
27-08-2021 16:00,8.5,,,8.5
27-08-2021 17:00,6.5,,,6.5
27-08-2021 18:00,0.5,,,0.5
27-08-2022 02:00,,0.5,,0.5
27-08-2022 04:00,,0.5,,0.5
27-08-2022 06:00,,0.5,,0.5
27-08-2022 08:00,,0.5,,0.5
27-08-2022 10:00,,0.5,,0.5
27-08-2022 11:00,,0.5,,0.5
27-08-2022 13:00,,0.5,,0.5
27-08-2022 14:00,,0.5,,0.5
27-08-2022 16:00,,0.5,,0.5
27-08-2022 17:00,,0.5,,0.5
27-08-2022 18:00,,1.0,,1.0
27-08-2022 19:00,,0.5,,0.5
27-08-2022 20:00,,0.5,,0.5
27-08-2022 21:00,,1.0,1.5,1.25
27-08-2022 22:00,,1.5,,1.5
27-08-2022 23:00,,1.0,0.5,0.75
27-08-2023 01:00,,2.5,,2.5
27-08-2023 02:00,,1.0,,1.0
27-08-2023 03:00,,13.5,,13.5
27-08-2023 04:00,29.5,,7.0,18.25
27-08-2023 05:00,0.5,,,0.5
27-08-2023 06:00,,,0.5,0.5
27-08-2025 22:00,,0.5,,0.5
27-09-2023 18:00,3.5,,31.0,17.25
27-09-2023 19:00,1.0,,1.5,1.25
27-09-2023 20:00,,,0.5,0.5
27-09-2024 15:00,,1.0,,1.0
27-09-2025 06:00,,,0.5,0.5
27-10-2022 08:00,1.5,,3.5,2.5
27-10-2022 09:00,,,0.5,0.5
27-10-2022 10:00,2.0,2.5,,2.25
27-10-2022 11:00,2.0,1.0,3.0,2.0
27-10-2022 13:00,0.5,4.0,,2.25
27-10-2022 14:00,,4.0,,4.0
27-10-2022 15:00,,0.5,,0.5
27-10-2022 16:00,,,0.5,0.5
27-10-2022 19:00,1.0,,,1.0
27-10-2022 20:00,,0.5,,0.5
27-10-2022 21:00,,0.5,,0.5
27-10-2022 22:00,,56.0,,56.0
27-10-2025 05:00,0.5,,0.5,0.5
27-10-2025 06:00,0.5,,,0.5
27-10-2025 07:00,0.5,,0.5,0.5
27-10-2025 08:00,0.5,0.5,0.5,0.5
27-10-2025 09:00,2.5,2.5,2.0,2.3333333333333335
27-10-2025 10:00,1.0,0.5,1.0,0.8333333333333334
27-10-2025 11:00,0.5,0.5,,0.5
27-10-2025 12:00,3.0,1.5,2.0,2.1666666666666665
27-10-2025 13:00,1.5,1.0,2.0,1.5
27-10-2025 14:00,,0.5,,0.5
27-10-2025 15:00,0.5,0.5,,0.5
27-10-2025 17:00,,0.5,0.5,0.5
27-10-2025 18:00,1.0,0.5,,0.75
27-10-2025 19:00,1.0,2.0,1.5,1.5
27-10-2025 20:00,3.0,2.5,2.0,2.5
27-10-2025 21:00,3.0,0.5,3.5,2.3333333333333335
27-10-2025 22:00,2.5,2.5,2.5,2.5
27-10-2025 23:00,5.0,3.5,4.0,4.166666666666667
27-11-2021 00:00,11.5,,10.0,10.75
27-11-2021 01:00,2.5,,3.5,3.0
27-11-2021 02:00,3.0,,4.5,3.75
27-11-2021 03:00,2.5,,3.0,2.75
27-11-2021 04:00,10.5,,7.5,9.0
27-11-2021 05:00,4.0,,3.5,3.75
27-11-2021 06:00,17.0,,6.5,11.75
27-11-2021 07:00,13.5,,7.0,10.25
27-11-2021 08:00,1.5,,3.0,2.25
27-11-2021 09:00,1.5,,2.0,1.75
27-11-2021 10:00,1.0,,0.5,0.75
27-11-2021 18:00,0.5,,1.0,0.75
27-11-2021 19:00,9.0,,15.0,12.0
27-11-2021 20:00,8.5,,3.0,5.75
27-11-2021 21:00,,,3.0,3.0
27-11-2021 22:00,4.5,,,4.5
27-11-2021 23:00,,,0.5,0.5
27-11-2023 00:00,,,0.5,0.5
27-11-2023 01:00,5.5,,0.5,3.0
27-11-2023 02:00,0.5,,,0.5
27-11-2023 03:00,,,17.0,17.0
27-11-2023 11:00,0.5,,,0.5
27-11-2023 13:00,0.5,,,0.5
27-11-2023 14:00,1.5,,,1.5
27-11-2023 19:00,,,0.5,0.5
27-11-2023 22:00,15.0,,,15.0
27-11-2023 23:00,4.0,,2.0,3.0
27-11-2024 00:00,,5.5,,5.5
27-12-2022 15:00,1.0,,,1.0
27-12-2024 00:00,,,0.5,0.5
27-12-2024 01:00,1.0,,,1.0
27-12-2024 02:00,15.5,0.5,5.5,7.166666666666667
27-12-2024 03:00,8.5,1.0,19.0,9.5
27-12-2024 04:00,1.0,,6.0,3.5
27-12-2024 06:00,3.0,,,3.0
27-12-2024 09:00,,1.5,,1.5
27-12-2024 19:00,,6.0,,6.0
27-12-2024 20:00,,2.0,,2.0
27-12-2024 21:00,,1.0,,1.0
27-12-2024 22:00,,3.5,,3.5
28-06-2023 11:00,0.5,,,0.5
28-06-2023 22:00,,,0.5,0.5
28-08-2021 01:00,,,1.5,1.5
28-08-2021 02:00,1.5,,8.5,5.0
28-08-2021 03:00,2.0,,0.5,1.25
28-08-2021 04:00,,,0.5,0.5
28-08-2021 14:00,0.5,,,0.5
28-08-2021 22:00,4.0,,16.5,10.25
28-08-2021 23:00,8.5,,3.5,6.0
28-08-2022 00:00,,0.5,,0.5
28-08-2022 01:00,,1.0,,1.0
28-08-2022 02:00,,0.5,,0.5
28-08-2022 03:00,,1.0,,1.0
28-08-2022 04:00,,0.5,,0.5
28-08-2022 05:00,,0.5,,0.5
28-08-2022 06:00,,0.5,,0.5
28-08-2022 08:00,,0.5,,0.5
28-08-2022 09:00,,0.5,,0.5
28-08-2022 10:00,,0.5,,0.5
28-08-2022 11:00,,1.0,,1.0
28-08-2022 12:00,,0.5,,0.5
28-08-2022 13:00,,0.5,,0.5
28-08-2022 14:00,,0.5,,0.5
28-08-2022 15:00,,0.5,,0.5
28-08-2022 16:00,,0.5,,0.5
28-08-2022 17:00,,0.5,,0.5
28-08-2022 18:00,,0.5,,0.5
28-08-2022 19:00,,0.5,,0.5
28-08-2022 20:00,,0.5,,0.5
28-08-2022 21:00,,0.5,,0.5
28-08-2022 22:00,,0.5,,0.5
28-08-2022 23:00,,0.5,,0.5
28-08-2024 05:00,0.5,,0.5,0.5
28-08-2024 06:00,0.5,,0.5,0.5
28-08-2024 08:00,,,0.5,0.5
28-08-2025 01:00,,2.0,,2.0
28-08-2025 13:00,,0.5,,0.5
28-09-2022 04:00,,0.5,,0.5
28-09-2022 07:00,,,0.5,0.5
28-09-2022 16:00,,,31.5,31.5
28-09-2022 17:00,,,1.5,1.5
28-09-2022 19:00,,0.5,,0.5
28-09-2023 03:00,,,0.5,0.5
28-10-2021 10:00,0.5,,,0.5
28-10-2022 01:00,0.5,,,0.5
28-10-2023 04:00,,,1.0,1.0
28-10-2023 21:00,,,12.0,12.0
28-10-2023 23:00,0.5,,,0.5
28-10-2025 00:00,6.0,5.0,5.5,5.5
28-10-2025 01:00,4.5,4.5,4.5,4.5
28-10-2025 02:00,4.0,5.0,3.5,4.166666666666667
28-10-2025 03:00,2.5,4.0,1.5,2.6666666666666665
28-10-2025 04:00,3.5,2.0,2.5,2.6666666666666665
28-10-2025 05:00,1.5,,1.0,1.25
28-10-2025 06:00,1.5,,2.0,1.75
28-10-2025 07:00,1.5,,1.5,1.5
28-10-2025 08:00,2.5,,2.5,2.5
28-10-2025 09:00,2.0,,3.5,2.75
28-10-2025 10:00,1.5,,0.5,1.0
28-10-2025 11:00,1.0,,1.0,1.0
28-10-2025 12:00,,,1.5,1.5
28-10-2025 13:00,,,1.0,1.0
28-10-2025 15:00,,,0.5,0.5
28-10-2025 17:00,,,0.5,0.5
28-11-2021 00:00,0.5,,,0.5
28-11-2021 01:00,,,0.5,0.5
28-11-2021 02:00,0.5,,,0.5
28-11-2021 04:00,2.0,,,2.0
28-11-2021 05:00,0.5,,1.5,1.0
28-11-2021 06:00,0.5,,,0.5
28-11-2021 07:00,,,0.5,0.5
28-11-2021 12:00,,,5.0,5.0
28-11-2021 13:00,1.0,,12.5,6.75
28-11-2021 14:00,0.5,,0.5,0.5
28-11-2021 15:00,0.5,,,0.5
28-11-2021 16:00,0.5,,,0.5
28-11-2021 17:00,,,4.0,4.0
28-11-2021 18:00,12.0,,9.0,10.5
28-11-2021 20:00,,,0.5,0.5
28-11-2021 21:00,1.5,,0.5,1.0
28-11-2023 02:00,2.5,,,2.5
28-11-2024 09:00,,0.5,,0.5
29-04-2023 08:00,,,1.0,1.0
29-06-2022 21:00,,1.5,,1.5
29-06-2022 22:00,,,0.5,0.5
29-06-2022 23:00,0.5,1.5,,1.0
29-06-2023 00:00,,1.0,,1.0
29-06-2023 01:00,,1.0,,1.0
29-06-2023 02:00,,2.0,,2.0
29-06-2023 22:00,0.5,,3.0,1.75
29-06-2023 23:00,,,4.5,4.5
29-08-2021 00:00,2.0,,3.5,2.75
29-08-2021 01:00,2.5,,2.5,2.5
29-08-2021 02:00,2.0,,1.0,1.5
29-08-2021 03:00,1.0,,1.5,1.25
29-08-2021 04:00,,,0.5,0.5
29-08-2021 06:00,0.5,,,0.5
29-08-2021 08:00,,,0.5,0.5
29-08-2021 15:00,1.5,,0.5,1.0
29-08-2021 16:00,,,1.5,1.5
29-08-2021 17:00,,,0.5,0.5
29-08-2021 22:00,2.0,,,2.0
29-08-2021 23:00,0.5,,0.5,0.5
29-08-2022 01:00,,0.5,,0.5
29-08-2022 02:00,,0.5,,0.5
29-08-2022 03:00,,0.5,,0.5
29-08-2022 05:00,,0.5,,0.5
29-08-2022 06:00,,0.5,1.5,1.0
29-08-2022 07:00,,,4.0,4.0
29-08-2022 08:00,,0.5,1.0,0.75
29-08-2022 13:00,,0.5,,0.5
29-08-2022 20:00,,0.5,,0.5
29-08-2023 04:00,2.0,16.0,,9.0
29-08-2023 05:00,36.5,5.0,4.0,15.166666666666666
29-08-2023 06:00,1.0,1.0,1.0,1.0
29-08-2023 07:00,1.5,1.0,1.0,1.1666666666666667
29-09-2022 08:00,,0.5,,0.5
29-09-2022 10:00,,,0.5,0.5
29-09-2023 01:00,2.0,,2.0,2.0
29-09-2023 02:00,,,1.0,1.0
29-09-2023 19:00,11.0,,8.0,9.5
29-09-2023 20:00,28.0,,1.0,14.5
29-09-2023 21:00,0.5,,,0.5
29-09-2023 22:00,,,0.5,0.5
29-09-2023 23:00,1.0,,0.5,0.75
29-09-2025 02:00,,20.0,,20.0
29-09-2025 03:00,,1.0,,1.0
29-09-2025 04:00,,1.0,,1.0
29-09-2025 05:00,,0.5,,0.5
29-09-2025 06:00,,0.5,,0.5
29-10-2021 02:00,7.5,,,7.5
29-10-2021 05:00,1.5,,,1.5
29-10-2021 06:00,3.0,,,3.0
29-10-2021 11:00,3.5,,,3.5
29-10-2021 13:00,1.0,,,1.0
29-10-2021 18:00,0.5,,,0.5
29-10-2022 00:00,,,0.5,0.5
29-10-2023 00:00,0.5,,,0.5
29-10-2023 05:00,1.0,,,1.0
29-10-2023 07:00,,,0.5,0.5
29-10-2023 23:00,3.0,,,3.0
29-10-2024 18:00,0.5,,6.5,3.5
29-11-2021 01:00,0.5,,,0.5
29-11-2021 09:00,0.5,,,0.5
29-11-2021 11:00,,,1.5,1.5
29-11-2021 12:00,1.5,,4.5,3.0
29-11-2021 14:00,2.5,,10.0,6.25
29-11-2021 15:00,,,16.0,16.0
29-11-2021 16:00,8.5,,,8.5
29-11-2023 00:00,8.0,,,8.0
29-11-2023 01:00,4.5,,2.0,3.25
29-11-2023 03:00,1.5,,5.0,3.25
29-11-2023 04:00,7.0,,6.5,6.75
29-11-2023 05:00,6.0,,0.5,3.25
29-11-2023 08:00,,,0.5,0.5
29-11-2023 09:00,0.5,,,0.5
29-11-2023 11:00,,,5.5,5.5
29-11-2023 12:00,1.0,,5.5,3.25
29-11-2023 13:00,1.5,,1.5,1.5
29-11-2023 14:00,,,2.0,2.0
29-11-2023 15:00,,,1.5,1.5
29-11-2023 18:00,6.0,,1.0,3.5
29-11-2023 19:00,4.0,,,4.0
29-11-2023 20:00,17.5,,30.5,24.0
29-11-2023 21:00,2.5,,5.5,4.0
29-11-2023 22:00,0.5,,0.5,0.5
29-11-2024 00:00,3.5,1.0,3.0,2.5
29-11-2024 01:00,7.5,,7.0,7.25
29-11-2024 02:00,,,12.0,12.0
29-11-2024 03:00,19.5,0.5,11.0,10.333333333333334
29-11-2024 04:00,,,7.0,7.0
29-11-2024 05:00,5.5,,,5.5
29-11-2024 06:00,,2.0,1.5,1.75
29-11-2024 09:00,1.0,,1.0,1.0
29-11-2024 13:00,2.0,,1.0,1.5
29-11-2024 14:00,,,1.0,1.0
29-11-2024 15:00,0.5,,0.5,0.5
29-11-2024 20:00,4.0,8.0,,6.0
29-11-2024 21:00,2.0,,,2.0
29-11-2024 22:00,0.5,,0.5,0.5
29-12-2023 00:00,,,0.5,0.5
29-12-2024 11:00,,0.5,,0.5
29-12-2024 12:00,,15.0,,15.0
29-12-2024 13:00,,22.5,,22.5
29-12-2024 14:00,,9.5,,9.5
29-12-2024 15:00,,1.0,,1.0
29-12-2024 16:00,,1.0,,1.0
29-12-2024 17:00,,1.5,,1.5
29-12-2024 18:00,,1.5,,1.5
29-12-2024 21:00,0.5,,,0.5
30-01-2023 08:00,,,1.0,1.0
30-06-2023 09:00,,,0.5,0.5
30-07-2024 21:00,15.5,,7.5,11.5
30-07-2024 23:00,0.5,,0.5,0.5
30-08-2021 00:00,,,0.5,0.5
30-08-2021 01:00,0.5,,0.5,0.5
30-08-2021 02:00,0.5,,1.0,0.75
30-08-2021 12:00,0.5,,,0.5
30-08-2022 00:00,,0.5,,0.5
30-08-2022 06:00,,0.5,,0.5
30-08-2022 10:00,,0.5,,0.5
30-08-2022 14:00,,0.5,,0.5
30-08-2022 17:00,,0.5,,0.5
30-08-2022 22:00,,0.5,,0.5
30-08-2023 17:00,,20.5,,20.5
30-08-2023 18:00,,0.5,,0.5
30-08-2024 21:00,17.0,,16.0,16.5
30-08-2024 22:00,3.0,,3.0,3.0
30-08-2024 23:00,1.0,,0.5,0.75
30-09-2021 10:00,1.0,,,1.0
30-09-2021 11:00,0.5,,,0.5
30-09-2021 17:00,0.5,,12.0,6.25
30-09-2023 00:00,0.5,,0.5,0.5
30-09-2023 06:00,0.5,,,0.5
30-09-2025 03:00,7.5,,1.5,4.5
30-09-2025 04:00,1.5,,1.0,1.25
30-09-2025 05:00,0.5,,0.5,0.5
30-09-2025 06:00,0.5,,0.5,0.5
30-09-2025 07:00,,,0.5,0.5
30-10-2021 00:00,2.5,,,2.5
30-10-2021 01:00,11.0,,,11.0
30-10-2021 02:00,0.5,,,0.5
30-10-2021 04:00,3.0,,,3.0
30-10-2021 05:00,0.5,,,0.5
30-10-2021 14:00,0.5,,,0.5
30-10-2021 15:00,1.0,,,1.0
30-10-2022 03:00,,,0.5,0.5
30-10-2022 10:00,,0.5,,0.5
30-10-2023 00:00,7.5,,,7.5
30-10-2023 01:00,3.5,,4.5,4.0
30-10-2023 02:00,20.5,,,20.5
30-10-2023 03:00,7.5,,,7.5
30-10-2023 10:00,,,4.5,4.5
30-10-2023 16:00,1.0,,,1.0
30-10-2024 13:00,,26.0,1.5,13.75
30-10-2024 14:00,6.0,30.0,0.5,12.166666666666666
30-10-2024 15:00,,,0.5,0.5
30-11-2021 18:00,0.5,,,0.5
30-11-2021 23:00,2.5,,,2.5
30-11-2023 02:00,0.5,,,0.5
30-11-2023 03:00,4.0,,1.0,2.5
30-11-2023 04:00,9.0,,23.0,16.0
30-11-2023 05:00,12.0,,2.0,7.0
30-11-2023 06:00,0.5,,1.0,0.75
30-11-2023 09:00,5.0,,7.5,6.25
30-11-2023 10:00,3.0,,5.5,4.25
30-11-2023 11:00,0.5,,0.5,0.5
30-11-2023 14:00,,,0.5,0.5
30-11-2023 15:00,,,0.5,0.5
30-11-2023 20:00,8.5,,2.0,5.25
30-11-2023 21:00,2.5,,2.0,2.25
30-11-2023 22:00,2.5,,1.0,1.75
30-11-2024 01:00,3.0,,3.5,3.25
30-11-2024 02:00,,,1.0,1.0
30-11-2024 03:00,,,1.5,1.5
30-11-2024 04:00,2.0,,1.5,1.75
30-11-2024 05:00,4.5,3.0,4.0,3.8333333333333335
30-11-2024 06:00,,6.0,12.0,9.0
30-11-2024 07:00,12.5,1.5,13.0,9.0
30-11-2024 08:00,14.5,,11.0,12.75
30-11-2024 09:00,,11.0,26.0,18.5
30-11-2024 10:00,18.5,1.0,26.5,15.333333333333334
30-11-2024 11:00,2.0,,6.0,4.0
30-11-2024 12:00,2.0,,4.5,3.25
30-11-2024 13:00,17.0,,14.0,15.5
30-11-2024 14:00,6.5,,7.0,6.75
30-11-2024 15:00,3.5,,1.5,2.5
30-11-2024 17:00,0.5,,1.5,1.0
30-11-2025 00:00,2.5,,3.0,2.75
30-11-2025 01:00,,,1.0,1.0
30-11-2025 04:00,,,1.5,1.5
30-11-2025 06:00,,,0.5,0.5
30-11-2025 08:00,0.5,,0.5,0.5
30-11-2025 09:00,0.5,,1.5,1.0
30-11-2025 10:00,,,0.5,0.5
30-11-2025 11:00,0.5,,,0.5
30-11-2025 19:00,1.0,,,1.0
30-11-2025 20:00,0.5,,,0.5
30-11-2025 21:00,1.5,,,1.5
30-11-2025 23:00,0.5,,,0.5
30-12-2021 13:00,13.0,,14.0,13.5
30-12-2021 14:00,2.5,,,2.5
30-12-2021 15:00,27.0,,18.5,22.75
30-12-2021 16:00,42.0,,31.5,36.75
30-12-2021 17:00,62.0,,8.0,35.0
30-12-2021 18:00,60.0,,34.0,47.0
30-12-2021 19:00,23.0,,16.5,19.75
30-12-2021 20:00,7.5,,22.0,14.75
30-12-2021 21:00,1.0,,4.5,2.75
30-12-2021 22:00,3.5,,1.0,2.25
30-12-2021 23:00,2.5,,3.0,2.75
30-12-2023 08:00,,,0.5,0.5
30-12-2024 00:00,0.5,,1.5,1.0
30-12-2024 01:00,0.5,,,0.5
30-12-2024 02:00,,1.5,,1.5
30-12-2024 03:00,,5.0,,5.0
30-12-2024 04:00,,3.0,,3.0
30-12-2024 05:00,,2.5,,2.5
30-12-2024 06:00,,3.0,,3.0
30-12-2024 07:00,,12.0,,12.0
30-12-2024 08:00,,1.0,,1.0
30-12-2024 10:00,,1.0,,1.0
31-01-2023 11:00,,6.0,,6.0
31-08-2021 00:00,,,0.5,0.5
31-08-2021 02:00,0.5,,,0.5
31-08-2021 03:00,0.5,,,0.5
31-08-2021 11:00,,,0.5,0.5
31-08-2022 02:00,,0.5,,0.5
31-08-2022 09:00,,0.5,,0.5
31-08-2022 14:00,,0.5,,0.5
31-08-2022 15:00,,,3.0,3.0
31-08-2022 20:00,,0.5,,0.5
31-08-2023 03:00,,,2.0,2.0
31-08-2024 00:00,0.5,,,0.5
31-08-2024 03:00,,,0.5,0.5
31-10-2021 06:00,0.5,,,0.5
31-10-2021 09:00,0.5,,,0.5
31-10-2021 19:00,1.0,,,1.0
31-10-2021 20:00,0.5,,,0.5
31-10-2021 21:00,2.0,,,2.0
31-10-2021 22:00,3.0,,,3.0
31-10-2021 23:00,1.5,,,1.5
31-10-2022 01:00,1.5,,,1.5
31-10-2022 06:00,,,1.5,1.5
31-10-2022 07:00,,,6.0,6.0
31-10-2022 19:00,,,4.0,4.0
31-10-2022 20:00,,94.0,1.0,47.5
31-10-2022 21:00,,,6.0,6.0
31-10-2022 22:00,,,1.0,1.0
31-10-2022 23:00,,,2.0,2.0
31-10-2023 09:00,3.5,,,3.5
31-10-2023 10:00,0.5,,,0.5
31-12-2021 03:00,,,1.5,1.5
31-12-2021 04:00,,,0.5,0.5
31-12-2021 14:00,2.5,,1.0,1.75
31-12-2021 16:00,12.5,,14.5,13.5
31-12-2021 17:00,1.0,,,1.0
31-12-2021 18:00,0.5,,2.5,1.5
31-12-2021 19:00,,,0.5,0.5
31-12-2021 20:00,0.5,,,0.5
31-12-2023 04:00,,,0.5,0.5
31-12-2024 02:00,,22.5,,22.5
31-12-2024 03:00,,3.0,,3.0
31-12-2024 06:00,,2.0,,2.0
31-12-2024 07:00,,1.5,,1.5
31-12-2024 08:00,,2.5,,2.5
31-12-2024 09:00,,1.0,,1.0
31-12-2024 10:00,,38.0,,38.0
31-12-2024 11:00,,0.5,,0.5
