timestamp,rainfall_mylapore,rainfall_redhills,rainfall_tharamani,rainfall_mean,water_level
01-02-2023 23:00,0.5,,,0.5,0.086
01-09-2022 03:00,,0.5,,0.5,0.217
01-09-2022 10:00,,0.5,0.5,0.5,0.101
01-09-2022 11:00,,,4.0,4.0,0.086
01-09-2022 13:00,,,1.0,1.0,0.066
01-09-2022 14:00,,,11.5,11.5,0.067
01-09-2022 15:00,,,2.5,2.5,0.07
01-09-2022 16:00,,0.5,,0.5,0.067
01-09-2024 14:00,,,1.5,1.5,10.064
01-09-2025 00:00,7.5,0.5,1.5,3.1666666666666665,3.25
01-09-2025 01:00,1.5,,0.5,1.0,3.25
01-09-2025 02:00,1.0,,0.5,0.75,3.25
01-11-2022 00:00,,,5.0,5.0,0.178
01-11-2022 01:00,,,4.0,4.0,0.177
01-11-2022 02:00,,,3.5,3.5,0.07
01-11-2022 03:00,,,0.5,0.5,0.107
01-11-2022 05:00,,,1.0,1.0,0.016
01-11-2022 06:00,,,3.5,3.5,0.072
01-11-2022 07:00,,,1.5,1.5,0.127
01-11-2022 08:00,,,2.5,2.5,0.177
01-11-2022 09:00,,,13.5,13.5,0.246
01-11-2022 10:00,,,9.5,9.5,0.306
01-11-2022 11:00,,,5.0,5.0,0.392
01-11-2022 12:00,,,3.5,3.5,0.492
01-11-2022 13:00,2.0,,16.5,9.25,0.634
01-11-2022 14:00,24.5,,9.0,16.75,0.786
01-11-2022 15:00,4.0,,2.0,3.0,0.871
01-11-2022 16:00,,,1.5,1.5,0.91
01-11-2022 17:00,,,0.5,0.5,0.945
01-11-2022 20:00,2.5,,,2.5,1.004
01-11-2022 21:00,52.0,,,52.0,1.006
01-11-2022 22:00,113.5,,,113.5,1.002
01-11-2022 23:00,88.5,,4.5,46.5,0.997
01-11-2024 01:00,,9.5,,9.5,10.064
01-11-2024 15:00,,3.0,,3.0,10.064
01-12-2022 02:00,1.0,,5.0,3.0,0.037
01-12-2022 05:00,,,1.0,1.0,0.05
01-12-2024 00:00,,,0.5,0.5,10.049
01-12-2024 19:00,1.0,,,1.0,10.054
01-12-2024 22:00,0.5,,,0.5,10.056
01-12-2025 00:00,0.5,,0.5,0.5,3.25
01-12-2025 01:00,0.5,,0.5,0.5,3.25
01-12-2025 02:00,1.5,,1.5,1.5,3.25
01-12-2025 03:00,0.5,,1.0,0.75,3.25
01-12-2025 04:00,0.5,,,0.5,3.25
01-12-2025 05:00,1.0,,0.5,0.75,3.25
01-12-2025 06:00,,,0.5,0.5,3.25
01-12-2025 07:00,0.5,,0.5,0.5,3.25
01-12-2025 08:00,2.0,,1.0,1.5,3.25
01-12-2025 09:00,18.0,,9.5,13.75,3.25
01-12-2025 10:00,7.5,,7.0,7.25,3.25
01-12-2025 11:00,10.5,,,10.5,3.25
01-12-2025 12:00,10.5,,18.0,14.25,3.25
01-12-2025 13:00,5.5,,4.5,5.0,3.25
01-12-2025 14:00,11.0,,5.0,8.0,3.25
01-12-2025 15:00,11.5,,13.5,12.5,3.25
01-12-2025 16:00,14.0,,8.0,11.0,3.25
01-12-2025 17:00,,,0.5,0.5,3.25
01-12-2025 19:00,2.0,,0.5,1.25,3.25
01-12-2025 20:00,16.0,,21.5,18.75,3.25
01-12-2025 21:00,1.5,,1.0,1.25,3.25
01-12-2025 22:00,0.5,,0.5,0.5,3.25
01-12-2025 23:00,1.5,,1.5,1.5,3.25
02-02-2023 00:00,1.0,,,1.0,0.084
02-06-2024 00:00,,,1.5,1.5,10.069
02-06-2024 01:00,,,0.5,0.5,10.064
02-08-2024 22:00,,,1.0,1.0,10.065
02-08-2024 23:00,,,0.5,0.5,10.065
02-09-2022 00:00,,0.5,,0.5,0.317
02-09-2022 06:00,,0.5,,0.5,0.533
02-09-2022 08:00,,0.5,,0.5,0.582
02-09-2022 09:00,,0.5,,0.5,0.6
02-09-2022 10:00,,0.5,,0.5,0.614
02-09-2022 13:00,,0.5,,0.5,0.637
02-09-2022 17:00,,0.5,,0.5,0.627
02-09-2022 18:00,,0.5,,0.5,0.626
02-09-2022 20:00,,0.5,,0.5,0.613
02-09-2022 21:00,,0.5,,0.5,0.606
02-10-2024 23:00,,0.5,,0.5,10.064
02-10-2025 03:00,0.5,,,0.5,3.282
02-11-2022 00:00,,,9.0,9.0,0.991
02-11-2022 01:00,32.0,,13.5,22.75,1
02-11-2022 02:00,119.5,,1.5,60.5,1.019
02-11-2022 04:00,184.5,,3.0,93.75,1.108
02-11-2022 05:00,769.5,,,769.5,1.146
02-11-2022 06:00,1412.5,,,1412.5,1.17
02-11-2022 07:00,135.5,,2.5,69.0,1.179
02-11-2022 08:00,79.5,,0.5,40.0,1.178
02-11-2022 09:00,170.5,,,170.5,1.172
02-11-2022 10:00,4.0,,,4.0,1.162
02-11-2022 11:00,0.5,,2.5,1.5,1.146
02-11-2022 12:00,3.0,,2.0,2.5,1.133
02-11-2022 18:00,6.0,,9.5,7.75,1.035
02-11-2022 20:00,,,0.5,0.5,1.031
02-11-2022 23:00,2.0,,9.5,5.75,1.028
02-11-2024 04:00,,,1.5,1.5,10.065
02-11-2024 08:00,,,1.0,1.0,10.064
02-11-2024 09:00,0.5,,0.5,0.5,10.064
02-11-2025 17:00,,1.0,,1.0,3.25
02-12-2024 00:00,0.5,,,0.5,10.056
02-12-2024 02:00,,,0.5,0.5,10.056
02-12-2024 09:00,,1.0,,1.0,10.058
02-12-2024 13:00,,3.5,,3.5,10.059
02-12-2025 00:00,3.5,,3.0,3.25,3.25
02-12-2025 01:00,2.5,,2.0,2.25,3.25
02-12-2025 02:00,3.5,,11.0,7.25,3.25
02-12-2025 03:00,18.5,,14.5,16.5,3.25
02-12-2025 04:00,15.5,,5.0,10.25,3.25
02-12-2025 05:00,0.5,,0.5,0.5,3.25
02-12-2025 06:00,0.5,,,0.5,3.25
02-12-2025 07:00,,,0.5,0.5,3.25
02-12-2025 08:00,,,1.0,1.0,3.25
02-12-2025 09:00,0.5,,0.5,0.5,3.25
02-12-2025 10:00,2.5,,7.5,5.0,3.25
02-12-2025 11:00,4.0,,3.5,3.75,3.25
02-12-2025 12:00,2.5,,4.0,3.25,3.25
02-12-2025 14:00,,,0.5,0.5,3.25
02-12-2025 15:00,1.5,,1.0,1.25,3.25
02-12-2025 16:00,1.0,,,1.0,3.25
02-12-2025 19:00,0.5,,2.5,1.5,3.25
02-12-2025 20:00,,,1.5,1.5,3.25
02-12-2025 21:00,0.5,,1.5,1.0,3.25
02-12-2025 23:00,0.5,,0.5,0.5,3.25
03-01-2024 11:00,,,1.0,1.0,10.063
03-07-2023 02:00,,,0.5,0.5,0.003
03-07-2023 09:00,0.5,,,0.5,0.005
03-07-2024 22:00,40.5,,27.5,34.0,10.064
03-07-2024 23:00,3.5,,2.5,3.0,10.065
03-08-2022 06:00,,0.5,,0.5,0.011
03-08-2024 23:00,,,13.5,13.5,10.065
03-09-2022 00:00,,0.5,,0.5,0.582
03-09-2022 02:00,,0.5,,0.5,0.566
03-09-2022 05:00,,0.5,,0.5,0.538
03-09-2022 09:00,,0.5,,0.5,0.487
03-09-2022 13:00,,0.5,,0.5,0.416
03-09-2022 17:00,,0.5,,0.5,0.337
03-09-2022 21:00,,0.5,,0.5,0.263
03-09-2024 01:00,9.5,,,9.5,10.065
03-09-2024 02:00,17.5,,,17.5,10.064
03-09-2024 07:00,0.5,,,0.5,10.064
03-09-2024 08:00,,,0.5,0.5,10.065
03-09-2024 21:00,1.5,,,1.5,10.065
03-09-2024 22:00,2.5,,1.5,2.0,10.065
03-09-2024 23:00,2.0,,0.5,1.25,10.065
03-10-2024 16:00,1.5,0.5,7.5,3.1666666666666665,10.064
03-10-2024 17:00,,,0.5,0.5,10.065
03-10-2025 00:00,3.0,,0.5,1.75,3.27
03-10-2025 03:00,,,2.5,2.5,3.274
03-10-2025 04:00,0.5,,2.5,1.5,3.273
03-10-2025 06:00,0.5,,,0.5,3.283
03-10-2025 07:00,,,0.5,0.5,3.25
03-11-2022 00:00,,,3.0,3.0,1.03
03-11-2022 01:00,,,0.5,0.5,1.039
03-11-2022 13:00,,1.0,,1.0,1.016
03-11-2022 14:00,,14.5,,14.5,1.016
03-11-2022 15:00,,5.5,,5.5,1.011
03-11-2022 17:00,9.0,0.5,11.0,6.833333333333333,1.005
03-11-2022 18:00,8.5,4.5,6.0,6.333333333333333,1.003
03-11-2022 19:00,5.0,0.5,1.5,2.3333333333333335,1.009
03-11-2022 20:00,1.5,,,1.5,1.017
03-11-2022 21:00,11.0,,,11.0,1.027
03-11-2024 05:00,,,6.0,6.0,10.065
03-11-2024 06:00,7.0,,,7.0,10.065
03-11-2024 07:00,0.5,,,0.5,10.064
03-12-2025 00:00,,,0.5,0.5,3.25
03-12-2025 01:00,0.5,,,0.5,3.25
03-12-2025 02:00,1.0,,1.5,1.25,3.25
03-12-2025 03:00,1.5,,1.0,1.25,3.25
03-12-2025 04:00,1.5,,13.0,7.25,3.25
03-12-2025 05:00,1.5,,0.5,1.0,3.25
03-12-2025 06:00,1.5,,0.5,1.0,3.25
03-12-2025 07:00,1.0,,0.5,0.75,3.25
03-12-2025 08:00,,,1.5,1.5,3.25
03-12-2025 09:00,0.5,,1.0,0.75,3.25
03-12-2025 10:00,,,4.0,4.0,3.25
03-12-2025 11:00,0.5,,,0.5,3.25
03-12-2025 13:00,,,1.0,1.0,3.25
03-12-2025 15:00,0.5,,,0.5,3.25
03-12-2025 16:00,,,0.5,0.5,3.25
03-12-2025 17:00,,,0.5,0.5,3.25
03-12-2025 18:00,,,4.0,4.0,3.25
03-12-2025 19:00,0.5,,1.0,0.75,3.25
03-12-2025 20:00,0.5,,2.5,1.5,3.25
03-12-2025 21:00,1.0,,1.5,1.25,3.25
03-12-2025 22:00,,,0.5,0.5,3.25
03-12-2025 23:00,0.5,,,0.5,3.25
04-01-2024 00:00,,,0.5,0.5,10.063
04-01-2024 01:00,,,0.5,0.5,10.063
04-01-2024 06:00,,,0.5,0.5,10.063
04-01-2024 16:00,1.0,,0.5,0.75,10.063
04-01-2024 17:00,2.5,,2.0,2.25,10.062
04-01-2024 18:00,,,1.0,1.0,10.063
04-03-2022 14:00,,3.0,,3.0,0.581
04-05-2025 17:00,,,5.5,5.5,10.065
04-05-2025 20:00,,,0.5,0.5,10.065
04-05-2025 21:00,,,1.0,1.0,10.065
04-06-2024 19:00,6.5,,3.5,5.0,10.063
04-06-2024 20:00,,,0.5,0.5,10.065
04-07-2024 00:00,2.0,,1.5,1.75,10.063
04-08-2024 00:00,1.0,,3.0,2.0,10.064
04-08-2024 01:00,0.5,,1.0,0.75,10.064
04-08-2024 18:00,6.5,,22.5,14.5,10.065
04-08-2024 19:00,5.5,,1.5,3.5,10.064
04-08-2024 21:00,,,0.5,0.5,10.065
04-09-2022 00:00,,0.5,,0.5,0.212
04-09-2022 03:00,,0.5,,0.5,0.161
04-09-2022 06:00,,0.5,,0.5,0.109
04-09-2022 08:00,,1.0,,1.0,0.077
04-09-2022 09:00,,1.0,,1.0,0.062
04-09-2022 10:00,,1.5,,1.5,0.044
04-09-2022 11:00,,0.5,,0.5,0.031
04-09-2022 12:00,,1.0,,1.0,0.018
04-09-2022 16:00,,1.0,,1.0,0.003
04-09-2022 17:00,,1.0,,1.0,0.019
04-09-2022 19:00,,1.0,,1.0,0.002
04-09-2022 20:00,,1.0,,1.0,0.004
04-09-2022 21:00,,1.0,,1.0,0.005
04-09-2022 22:00,,1.0,,1.0,0.002
04-09-2024 00:00,1.0,,,1.0,10.065
04-10-2025 03:00,,,0.5,0.5,3.282
04-10-2025 10:00,,0.5,,0.5,3.28
04-11-2022 00:00,2.0,,,2.0,1.064
04-11-2022 01:00,0.5,,1.5,1.0,1.073
04-11-2022 03:00,2.0,,1.5,1.75,1.079
04-11-2022 05:00,,,0.5,0.5,1.072
04-11-2022 10:00,,0.5,,0.5,1.046
04-11-2022 11:00,,2.0,,2.0,1.042
04-11-2022 12:00,,3.0,,3.0,1.038
04-11-2022 13:00,,4.0,,4.0,1.032
04-11-2022 14:00,,2.0,,2.0,1.026
04-11-2024 05:00,0.5,,,0.5,10.065
04-11-2024 06:00,1.0,,6.5,3.75,10.064
04-11-2024 07:00,0.5,,,0.5,10.065
04-11-2025 18:00,,,13.5,13.5,3.25
04-11-2025 19:00,,2.0,,2.0,3.25
04-12-2022 04:00,0.5,,1.0,0.75,0.027
04-12-2022 05:00,,,2.5,2.5,0.023
04-12-2022 15:00,,1.5,,1.5,0.02
04-12-2022 21:00,,0.5,,0.5,0.042
04-12-2023 06:00,8.0,4.0,,6.0,4.523
04-12-2023 07:00,14.5,1.0,13.0,9.5,10.05
04-12-2023 08:00,31.0,3.0,27.0,20.333333333333332,9.301
04-12-2023 09:00,29.5,3.0,22.0,18.166666666666668,9.673
04-12-2023 10:00,39.5,7.5,33.5,26.833333333333332,9.834
04-12-2023 11:00,25.5,7.0,22.5,18.333333333333332,4.358
04-12-2023 12:00,8.0,4.5,14.0,8.833333333333334,2.748
04-12-2023 13:00,5.5,2.0,1.0,2.8333333333333335,8.445
04-12-2023 14:00,13.0,2.0,20.5,11.833333333333334,2.827
04-12-2023 15:00,21.0,1.0,22.0,14.666666666666666,8.126
04-12-2023 16:00,5.0,2.0,7.0,4.666666666666667,6.669
04-12-2023 17:00,8.0,1.0,26.5,11.833333333333334,7.31
04-12-2023 18:00,18.5,,8.0,13.25,6.214
04-12-2023 19:00,16.5,1.0,7.5,8.333333333333334,7.796
04-12-2023 20:00,20.0,,31.0,25.5,4.522
04-12-2024 08:00,,0.5,,0.5,9.967
04-12-2024 20:00,0.5,,1.0,0.75,10.043
04-12-2024 21:00,2.0,0.5,,1.25,10.039
04-12-2024 23:00,,1.5,,1.5,10.045
04-12-2025 00:00,0.5,,,0.5,3.25
04-12-2025 01:00,0.5,,,0.5,3.25
04-12-2025 07:00,,,0.5,0.5,3.25
04-12-2025 08:00,,,0.5,0.5,3.25
04-12-2025 10:00,0.5,,,0.5,3.25
04-12-2025 12:00,,,4.5,4.5,3.25
04-12-2025 13:00,,,6.5,6.5,3.25
04-12-2025 14:00,,,0.5,0.5,3.25
04-12-2025 18:00,0.5,,,0.5,3.25
04-12-2025 23:00,,,0.5,0.5,3.25
05-01-2024 07:00,,,0.5,0.5,10.063
05-01-2024 12:00,,,17.5,17.5,10.062
05-01-2024 16:00,,,0.5,0.5,10.062
05-01-2025 10:00,,,0.5,0.5,10.064
05-06-2024 16:00,47.0,,9.0,28.0,10.065
05-06-2024 17:00,6.5,,4.0,5.25,10.065
05-06-2024 19:00,,,0.5,0.5,10.063
05-06-2024 22:00,,,0.5,0.5,10.066
05-07-2024 23:00,7.0,,5.5,6.25,10.065
05-08-2024 01:00,2.0,,,2.0,10.065
05-08-2024 02:00,10.5,,3.5,7.0,10.064
05-08-2024 03:00,1.0,,10.0,5.5,10.064
05-08-2024 04:00,14.0,,18.5,16.25,10.065
05-08-2024 05:00,17.0,,8.0,12.5,10.064
05-08-2024 06:00,17.0,,4.5,10.75,10.065
05-08-2024 07:00,4.5,,2.0,3.25,10.064
05-08-2024 08:00,,,1.5,1.5,10.064
05-10-2025 15:00,4.0,,,4.0,3.25
05-11-2022 14:00,,7.5,,7.5,0.901
05-11-2025 13:00,,,0.5,0.5,3.25
05-11-2025 14:00,,,0.5,0.5,3.25
05-11-2025 20:00,,2.0,,2.0,3.25
05-11-2025 21:00,2.0,10.0,0.5,4.166666666666667,3.25
05-12-2024 04:00,,3.5,,3.5,10.045
05-12-2024 05:00,0.5,,,0.5,10.047
05-12-2025 01:00,,,1.0,1.0,3.25
05-12-2025 02:00,,,0.5,0.5,3.25
05-12-2025 03:00,1.5,,,1.5,3.25
05-12-2025 04:00,1.5,,,1.5,3.25
05-12-2025 05:00,2.0,,0.5,1.25,3.25
05-12-2025 06:00,1.5,,,1.5,3.25
05-12-2025 07:00,1.5,,,1.5,3.25
05-12-2025 08:00,1.5,,,1.5,3.25
05-12-2025 09:00,1.0,,,1.0,3.25
05-12-2025 10:00,1.0,,,1.0,3.25
05-12-2025 11:00,1.0,,,1.0,3.25
05-12-2025 12:00,1.5,,,1.5,3.25
05-12-2025 13:00,2.5,,,2.5,3.25
05-12-2025 14:00,10.5,,,10.5,3.25
05-12-2025 15:00,10.0,,,10.0,3.25
05-12-2025 16:00,7.0,,,7.0,3.25
05-12-2025 17:00,2.5,,,2.5,3.25
06-01-2024 11:00,0.5,,0.5,0.5,10.063
06-01-2024 12:00,,,0.5,0.5,10.063
06-06-2023 17:00,0.5,,,0.5,0.002
06-06-2023 21:00,0.5,,,0.5,0.006
06-06-2024 20:00,,14.0,,14.0,10.062
06-06-2024 21:00,2.0,,14.5,8.25,10.063
06-06-2024 22:00,2.5,,1.5,2.0,10.061
06-06-2024 23:00,2.0,,3.0,2.5,10.064
06-07-2024 00:00,38.0,,7.5,22.75,10.065
06-07-2024 01:00,4.0,,3.5,3.75,10.065
06-07-2024 02:00,0.5,,0.5,0.5,10.064
06-07-2024 03:00,,,0.5,0.5,10.065
06-08-2024 20:00,1.5,,27.5,14.5,10.064
06-08-2024 21:00,16.0,,3.5,9.75,10.065
06-08-2024 22:00,1.5,,1.5,1.5,10.065
06-09-2024 00:00,,,0.5,0.5,10.064
06-09-2024 02:00,,,1.0,1.0,10.064
06-09-2024 03:00,0.5,,,0.5,10.064
06-09-2024 04:00,,,2.0,2.0,10.064
06-09-2024 07:00,0.5,,1.0,0.75,10.065
06-11-2024 15:00,,,1.0,1.0,10.064
06-11-2024 21:00,2.5,,1.5,2.0,10.064
06-11-2024 22:00,10.0,,2.5,6.25,10.064
06-11-2025 03:00,,,0.5,0.5,3.25
06-11-2025 18:00,,3.0,,3.0,3.25
06-11-2025 19:00,0.5,53.5,,27.0,3.25
06-11-2025 20:00,1.5,4.5,,3.0,3.25
06-12-2022 07:00,,0.5,,0.5,0.046
06-12-2022 13:00,,0.5,,0.5,0.065
07-01-2023 11:00,0.5,,,0.5,0.102
07-01-2023 23:00,2.5,,,2.5,0.062
07-01-2024 06:00,,,3.0,3.0,10.061
07-01-2024 09:00,,,0.5,0.5,10.063
07-01-2024 10:00,7.0,,4.5,5.75,10.059
07-01-2024 11:00,,,0.5,0.5,10.062
07-01-2024 12:00,2.0,,,2.0,10.062
07-01-2024 14:00,,,1.0,1.0,10.062
07-01-2024 15:00,4.5,,1.0,2.75,10.062
07-01-2024 16:00,,,0.5,0.5,10.062
07-01-2024 18:00,2.0,,2.0,2.0,10.062
07-01-2024 19:00,9.5,,10.5,10.0,10.063
07-01-2024 20:00,2.5,,8.0,5.25,10.061
07-01-2024 21:00,1.5,,2.0,1.75,10.061
07-01-2024 22:00,0.5,,0.5,0.5,10.061
07-02-2025 09:00,,0.5,,0.5,10.064
07-05-2025 00:00,,,0.5,0.5,10.065
07-05-2025 01:00,,,1.0,1.0,10.065
07-06-2024 00:00,0.5,,1.0,0.75,10.062
07-06-2024 02:00,0.5,,1.0,0.75,10.062
07-06-2024 03:00,2.0,,3.0,2.5,10.063
07-06-2024 07:00,,,0.5,0.5,10.062
07-07-2024 18:00,10.5,,2.0,6.25,10.064
07-07-2024 21:00,,,1.0,1.0,10.064
07-07-2024 22:00,0.5,,,0.5,10.065
07-07-2024 23:00,0.5,,,0.5,10.065
07-08-2024 03:00,,,2.0,2.0,10.064
07-08-2024 04:00,,,1.5,1.5,10.064
07-09-2022 15:00,,1.5,,1.5,0.006
07-09-2022 16:00,,0.5,,0.5,0.002
07-09-2022 19:00,,,3.0,3.0,0.02
07-09-2024 03:00,12.0,,1.5,6.75,10.064
07-09-2024 04:00,,,0.5,0.5,10.064
07-10-2022 02:00,,0.5,,0.5,0.01
07-10-2022 07:00,,0.5,,0.5,0.082
07-10-2022 10:00,,0.5,,0.5,0.065
07-10-2024 22:00,0.5,,,0.5,10.064
07-11-2024 00:00,0.5,,,0.5,10.065
07-11-2024 01:00,1.5,,,1.5,10.065
07-11-2024 02:00,,3.0,,3.0,10.065
07-11-2024 03:00,,11.0,2.5,6.75,10.064
07-11-2024 04:00,,5.0,,5.0,10.065
07-11-2024 07:00,1.0,,,1.0,10.065
07-11-2024 08:00,4.5,,1.5,3.0,10.065
07-11-2024 09:00,0.5,,1.5,1.0,10.065
07-11-2024 10:00,,1.5,1.0,1.25,10.065
07-11-2024 11:00,0.5,0.5,1.0,0.6666666666666666,10.064
07-11-2024 12:00,3.0,,3.5,3.25,10.064
07-11-2024 13:00,1.0,2.5,0.5,1.3333333333333333,10.064
07-11-2024 14:00,3.5,,0.5,2.0,10.064
07-11-2024 19:00,0.5,,,0.5,10.064
07-11-2025 12:00,,,0.5,0.5,3.25
07-12-2023 07:00,0.5,,,0.5,10.059
08-01-2024 00:00,,,0.5,0.5,10.063
08-01-2024 01:00,0.5,,14.5,7.5,10.062
08-01-2024 02:00,2.5,,0.5,1.5,10.059
08-01-2024 03:00,3.5,,2.0,2.75,10.054
08-01-2024 04:00,2.5,,3.0,2.75,10.048
08-01-2024 06:00,,,0.5,0.5,10.052
08-01-2024 07:00,,,1.0,1.0,10.052
08-01-2024 08:00,4.5,,23.0,13.75,10.052
08-01-2024 09:00,2.0,,3.5,2.75,10.051
08-01-2024 10:00,0.5,,1.5,1.0,10.055
08-01-2024 11:00,0.5,,0.5,0.5,10.056
08-05-2024 05:00,,,5.5,5.5,10.064
08-06-2024 00:00,,2.0,,2.0,10.066
08-06-2024 17:00,,0.5,,0.5,10.063
08-07-2024 02:00,,,0.5,0.5,10.064
08-07-2024 03:00,0.5,,,0.5,10.065
08-08-2024 04:00,0.5,,,0.5,10.065
08-08-2024 15:00,1.5,,,1.5,10.064
08-08-2024 16:00,0.5,,,0.5,10.065
08-10-2024 02:00,1.0,,,1.0,10.065
08-10-2024 03:00,,,1.0,1.0,10.065
08-10-2024 04:00,,0.5,,0.5,10.065
08-10-2024 06:00,,,25.5,25.5,10.064
08-12-2022 00:00,,0.5,,0.5,0.036
08-12-2022 10:00,0.5,,0.5,0.5,0.06
08-12-2022 11:00,0.5,,0.5,0.5,0.043
08-12-2022 13:00,,,0.5,0.5,0.04
08-12-2022 19:00,2.0,,1.5,1.75,0.047
08-12-2022 20:00,1.0,,1.0,1.0,0.05
08-12-2022 21:00,3.0,,2.5,2.75,0.046
08-12-2022 22:00,4.5,,3.5,4.0,0.048
08-12-2022 23:00,3.5,,3.5,3.5,0.028
08-12-2023 06:00,0.5,,,0.5,10.059
08-12-2023 07:00,0.5,,,0.5,10.06
09-01-2024 00:00,,,12.5,12.5,10.06
09-01-2024 01:00,,,26.0,26.0,10.061
09-01-2024 02:00,,,0.5,0.5,10.061
09-01-2024 03:00,,,5.5,5.5,10.06
09-07-2024 05:00,,,0.5,0.5,10.065
09-10-2022 00:00,,0.5,,0.5,0.005
09-10-2022 13:00,,0.5,,0.5,0.126
09-10-2024 02:00,0.5,0.5,,0.5,10.064
09-10-2024 04:00,0.5,,,0.5,10.065
09-10-2024 06:00,2.0,,,2.0,10.065
09-10-2024 07:00,0.5,,,0.5,10.064
09-10-2024 10:00,4.5,,5.0,4.75,10.065
09-11-2022 15:00,,1.5,,1.5,0.995
09-11-2022 18:00,,0.5,,0.5,0.996
09-11-2022 22:00,,3.5,,3.5,0.991
09-12-2022 00:00,0.5,,1.0,0.75,0.039
09-12-2022 01:00,1.5,,1.0,1.25,0.031
09-12-2022 02:00,1.5,,1.0,1.25,0.036
09-12-2022 03:00,1.5,,1.0,1.25,0.029
09-12-2022 04:00,17.5,,15.5,16.5,0.033
09-12-2022 05:00,17.5,,13.5,15.5,0.037
09-12-2022 06:00,9.0,,6.0,7.5,0.027
09-12-2022 07:00,3.5,,2.0,2.75,0.033
09-12-2022 08:00,,,0.5,0.5,0.027
09-12-2022 09:00,6.0,,7.0,6.5,0.024
09-12-2022 11:00,0.5,,0.5,0.5,0.029
09-12-2022 12:00,3.0,,3.0,3.0,0.013
09-12-2022 13:00,2.0,,5.0,3.5,0.059
09-12-2022 14:00,2.5,,3.5,3.0,0.108
09-12-2022 15:00,,,0.5,0.5,0.143
09-12-2022 16:00,7.0,,7.5,7.25,0.183
09-12-2022 17:00,4.5,,5.5,5.0,0.219
09-12-2022 18:00,7.5,,7.5,7.5,0.26
09-12-2022 19:00,14.0,,14.5,14.25,0.347
09-12-2022 20:00,19.5,,22.0,20.75,0.554
09-12-2022 21:00,8.0,,8.0,8.0,0.853
09-12-2022 22:00,3.5,,8.0,5.75,0.963
09-12-2022 23:00,7.5,,7.0,7.25,1.045
10-01-2024 11:00,26.0,,,26.0,10.062
10-01-2024 12:00,,,2.0,2.0,10.063
10-01-2025 17:00,0.5,,,0.5,10.064
10-06-2024 18:00,6.5,,13.0,9.75,10.063
10-06-2024 19:00,0.5,,,0.5,10.062
10-06-2024 20:00,,,0.5,0.5,10.063
10-08-2025 18:00,,,0.5,0.5,10.065
10-08-2025 19:00,,,1.5,1.5,10.065
10-10-2022 18:00,,0.5,,0.5,0.145
10-10-2022 23:00,,0.5,,0.5,0.268
10-10-2024 03:00,,,0.5,0.5,10.065
10-10-2024 04:00,,,12.0,12.0,10.064
10-10-2024 05:00,,,4.0,4.0,10.064
10-10-2024 06:00,,,4.5,4.5,10.065
10-10-2024 07:00,,,0.5,0.5,10.065
10-10-2024 10:00,,,0.5,0.5,10.064
10-10-2024 11:00,,,0.5,0.5,10.064
10-11-2022 02:00,,4.0,,4.0,0.991
10-11-2022 03:00,,1.0,,1.0,0.993
10-11-2022 06:00,2.5,0.5,,1.5,0.988
10-11-2022 07:00,,,5.0,5.0,0.986
10-11-2022 08:00,4.5,1.5,1.0,2.3333333333333335,0.984
10-11-2022 09:00,,0.5,0.5,0.5,0.983
10-11-2022 10:00,,2.0,,2.0,0.969
10-11-2022 12:00,,1.5,,1.5,0.978
10-11-2022 18:00,2.0,,,2.0,0.96
10-11-2022 19:00,6.5,20.0,3.5,10.0,0.962
10-11-2022 20:00,,,0.5,0.5,0.972
10-11-2022 21:00,,,0.5,0.5,0.977
10-12-2022 00:00,1.0,,2.0,1.5,1.187
10-12-2022 01:00,0.5,,1.0,0.75,1.27
10-12-2022 05:00,0.5,,0.5,0.5,1.415
10-12-2022 06:00,0.5,,0.5,0.5,1.441
10-12-2022 07:00,0.5,,,0.5,1.459
10-12-2022 10:00,0.5,,0.5,0.5,1.46
10-12-2022 14:00,,,0.5,0.5,1.428
10-12-2022 15:00,0.5,,,0.5,1.419
10-12-2023 23:00,0.5,,,0.5,10.052
11-01-2025 13:00,,0.5,,0.5,10.065
11-03-2025 09:00,,,1.0,1.0,10.064
11-03-2025 10:00,,0.5,,0.5,10.066
11-03-2025 13:00,11.5,,13.5,12.5,10.064
11-03-2025 14:00,,,1.5,1.5,10.065
11-03-2025 15:00,1.0,2.5,1.0,1.5,10.064
11-03-2025 16:00,0.5,0.5,,0.5,10.065
11-03-2025 21:00,3.0,,9.5,6.25,10.064
11-03-2025 23:00,,389.0,,389.0,10.063
11-06-2023 23:00,1.0,3.5,,2.25,0.012
11-06-2024 20:00,,0.5,,0.5,10.064
11-06-2024 21:00,0.5,12.0,1.5,4.666666666666667,10.064
11-06-2024 22:00,14.5,4.0,6.0,8.166666666666666,10.063
11-07-2024 01:00,3.5,,3.5,3.5,10.064
11-07-2024 04:00,,,0.5,0.5,10.064
11-07-2024 05:00,1.0,,1.0,1.0,10.064
11-07-2024 06:00,1.5,,1.0,1.25,10.064
11-07-2024 07:00,,,0.5,0.5,10.064
11-08-2025 03:00,,,0.5,0.5,10.065
11-10-2022 05:00,,0.5,,0.5,0.315
11-10-2022 11:00,6.0,,17.5,11.75,0.302
11-10-2022 21:00,,0.5,,0.5,0.226
11-10-2024 04:00,0.5,,,0.5,10.064
11-10-2024 08:00,,,0.5,0.5,10.063
11-10-2024 09:00,,,0.5,0.5,10.064
11-11-2022 00:00,0.5,,,0.5,0.989
11-11-2022 01:00,9.5,,15.5,12.5,0.988
11-11-2022 02:00,7.5,,6.5,7.0,1.003
11-11-2022 05:00,1.0,,3.0,2.0,1.017
11-11-2022 06:00,1.0,,0.5,0.75,1.026
11-11-2022 07:00,7.5,,2.5,5.0,1.039
11-11-2022 08:00,,,24.0,24.0,1.075
11-11-2022 09:00,,,1.0,1.0,1.122
11-11-2022 10:00,3.0,,3.0,3.0,1.155
11-11-2022 12:00,0.5,,,0.5,1.195
11-11-2022 13:00,,,0.5,0.5,1.218
11-11-2022 14:00,0.5,,1.0,0.75,1.235
11-11-2022 15:00,,,0.5,0.5,1.237
11-11-2022 18:00,0.5,,,0.5,1.253
11-11-2022 22:00,0.5,3.5,0.5,1.5,1.254
11-12-2022 03:00,,,4.5,4.5,1.272
11-12-2022 04:00,6.0,,2.5,4.25,1.265
11-12-2022 06:00,1.0,,1.0,1.0,1.255
11-12-2022 08:00,1.5,,,1.5,1.257
11-12-2022 09:00,0.5,,,0.5,1.272
11-12-2022 22:00,,,2.0,2.0,1.249
11-12-2023 03:00,0.5,,,0.5,10.054
11-12-2023 16:00,,,27.0,27.0,10.051
11-12-2024 09:00,,10.5,,10.5,10.061
11-12-2024 10:00,9.5,,7.5,8.5,10.06
11-12-2024 12:00,0.5,,,0.5,10.061
11-12-2024 13:00,,11.5,,11.5,10.062
11-12-2024 14:00,,,0.5,0.5,10.061
11-12-2024 15:00,0.5,2.5,2.0,1.6666666666666667,10.058
11-12-2024 16:00,0.5,,1.0,0.75,10.06
11-12-2024 18:00,,11.5,0.5,6.0,10.06
11-12-2024 20:00,0.5,,0.5,0.5,10.056
11-12-2024 22:00,0.5,4.0,2.0,2.1666666666666665,10.051
11-12-2024 23:00,0.5,2.5,1.0,1.3333333333333333,10.049
12-01-2025 23:00,,,1.5,1.5,10.064
12-03-2025 00:00,,259.5,,259.5,10.062
12-05-2025 18:00,2.5,,,2.5,10.065
12-06-2024 00:00,,,0.5,0.5,10.065
12-06-2024 02:00,0.5,,0.5,0.5,10.063
12-06-2024 03:00,0.5,,0.5,0.5,10.065
12-06-2024 23:00,4.5,,2.5,3.5,10.064
12-07-2024 21:00,,,1.5,1.5,10.065
12-07-2024 22:00,21.0,,8.0,14.5,10.065
12-07-2024 23:00,1.0,,4.5,2.75,10.065
12-08-2024 09:00,,,0.5,0.5,10.064
12-10-2022 03:00,,0.5,,0.5,0.155
12-10-2022 11:00,,0.5,,0.5,0.069
12-10-2024 02:00,,,5.5,5.5,10.064
12-10-2024 07:00,3.0,,,3.0,10.064
12-10-2024 08:00,,,1.0,1.0,10.064
12-11-2022 05:00,1.0,,34.5,17.75,1.242
12-11-2022 06:00,8.5,,11.0,9.75,1.28
12-11-2022 07:00,0.5,,7.0,3.75,1.318
12-11-2022 08:00,,,0.5,0.5,1.331
12-11-2022 11:00,,,0.5,0.5,1.325
12-11-2022 13:00,,,7.0,7.0,1.329
12-11-2022 21:00,0.5,,0.5,0.5,1.404
12-11-2024 00:00,,,0.5,0.5,10.064
12-11-2024 01:00,,1.0,,1.0,10.065
12-11-2024 03:00,1.5,,0.5,1.0,10.065
12-11-2024 04:00,4.5,,,4.5,10.064
12-11-2024 05:00,6.0,0.5,18.5,8.333333333333334,10.065
12-11-2024 06:00,5.5,0.5,8.5,4.833333333333333,10.065
12-11-2024 07:00,5.5,1.0,,3.25,10.065
12-11-2024 08:00,2.5,3.0,2.0,2.5,10.065
12-11-2024 09:00,6.0,8.0,1.5,5.166666666666667,10.065
12-11-2024 10:00,2.0,6.0,,4.0,10.064
12-11-2024 11:00,2.0,2.0,,2.0,10.064
12-11-2024 12:00,0.5,2.0,,1.25,10.065
12-11-2024 18:00,1.5,,,1.5,10.065
12-11-2024 20:00,,1.0,,1.0,10.064
12-12-2022 00:00,,,6.0,6.0,1.278
12-12-2022 01:00,,,0.5,0.5,1.287
12-12-2022 03:00,2.0,,0.5,1.25,1.297
12-12-2022 05:00,2.5,,,2.5,1.291
12-12-2022 06:00,2.0,,0.5,1.25,1.285
12-12-2022 10:00,1.0,,1.5,1.25,1.271
12-12-2022 11:00,1.0,,2.5,1.75,1.275
12-12-2022 12:00,5.0,,10.0,7.5,1.283
12-12-2022 13:00,3.5,,12.0,7.75,1.333
12-12-2022 14:00,1.0,,3.0,2.0,1.44
12-12-2022 15:00,4.5,,4.5,4.5,1.572
12-12-2022 16:00,1.0,,1.0,1.0,1.682
12-12-2023 14:00,,,0.5,0.5,10.055
12-12-2023 15:00,,,1.0,1.0,10.055
12-12-2023 16:00,,,4.5,4.5,10.058
12-12-2023 17:00,,,43.0,43.0,10.057
12-12-2023 18:00,,,6.5,6.5,10.052
12-12-2023 19:00,,,1.5,1.5,10.049
12-12-2023 20:00,,,1.0,1.0,10.048
12-12-2023 22:00,,,2.5,2.5,10.055
12-12-2023 23:00,,,0.5,0.5,10.053
12-12-2024 00:00,,,0.5,0.5,10.051
12-12-2024 02:00,13.5,,6.5,10.0,10.055
12-12-2024 03:00,3.5,,3.5,3.5,10.057
12-12-2024 04:00,0.5,,0.5,0.5,10.06
12-12-2024 05:00,0.5,,,0.5,10.062
12-12-2024 06:00,12.5,,11.0,11.75,10.061
12-12-2024 07:00,3.0,,1.0,2.0,10.061
12-12-2024 08:00,3.5,,1.5,2.5,10.06
12-12-2024 09:00,2.5,,2.0,2.25,10.061
12-12-2024 10:00,3.0,,2.0,2.5,10.062
12-12-2024 11:00,,,4.5,4.5,10.061
12-12-2024 12:00,2.0,,56.0,29.0,10.06
12-12-2024 13:00,8.0,,3.0,5.5,10.056
12-12-2024 17:00,3.0,0.5,,1.75,10.062
12-12-2024 18:00,0.5,,,0.5,10.062
12-12-2024 19:00,1.5,2.5,1.5,1.8333333333333333,10.062
12-12-2024 21:00,,0.5,,0.5,10.062
13-01-2025 01:00,3.5,,4.0,3.75,10.064
13-01-2025 02:00,0.5,,1.5,1.0,10.063
13-01-2025 03:00,,2.5,,2.5,10.063
13-01-2025 09:00,,9.0,,9.0,10.063
13-01-2025 10:00,,9.5,1.5,5.5,10.063
13-01-2025 14:00,,20.0,,20.0,10.063
13-04-2022 03:00,1.0,,0.5,0.75,0.55
13-04-2022 04:00,,,0.5,0.5,0.551
13-05-2024 12:00,5.5,,,5.5,10.065
13-06-2024 00:00,9.0,,2.5,5.75,10.064
13-06-2024 02:00,,,0.5,0.5,10.064
13-06-2024 18:00,1.0,,,1.0,10.064
13-06-2024 19:00,2.5,,,2.5,10.064
13-07-2024 00:00,7.5,,16.0,11.75,10.064
13-07-2024 01:00,3.5,,4.0,3.75,10.064
13-07-2024 02:00,3.0,,3.5,3.25,10.065
13-07-2024 03:00,1.0,,0.5,0.75,10.064
13-07-2024 05:00,0.5,,,0.5,10.064
13-07-2024 06:00,,,1.0,1.0,10.064
13-10-2024 06:00,1.5,,,1.5,10.065
13-10-2025 05:00,0.5,2.0,,1.25,3.25
13-11-2022 00:00,,,0.5,0.5,1.401
13-11-2022 03:00,0.5,,1.0,0.75,1.405
13-11-2022 04:00,1.5,,1.0,1.25,1.412
13-11-2022 05:00,10.0,,6.0,8.0,1.442
13-11-2022 06:00,0.5,,,0.5,1.48
13-11-2022 07:00,5.0,,35.0,20.0,1.506
13-11-2022 11:00,,,0.5,0.5,1.689
13-11-2022 16:00,0.5,,,0.5,1.673
13-11-2024 00:00,,,0.5,0.5,10.065
13-11-2024 02:00,1.5,1.0,0.5,1.0,10.064
13-11-2024 03:00,2.0,2.0,1.0,1.6666666666666667,10.064
13-11-2024 04:00,1.0,,0.5,0.75,10.064
13-11-2024 05:00,0.5,1.0,1.0,0.8333333333333334,10.064
13-11-2024 06:00,0.5,1.0,0.5,0.6666666666666666,10.064
13-11-2024 11:00,,,0.5,0.5,10.064
13-11-2024 18:00,0.5,,,0.5,10.064
13-11-2025 07:00,6.5,,,6.5,3.25
13-11-2025 08:00,,,7.0,7.0,3.25
13-11-2025 09:00,3.0,,,3.0,3.25
13-11-2025 10:00,,,18.5,18.5,3.25
13-11-2025 11:00,,,0.5,0.5,3.25
13-12-2023 00:00,,,0.5,0.5,10.049
13-12-2023 01:00,,,52.0,52.0,10.049
13-12-2023 02:00,,,0.5,0.5,10.049
13-12-2023 03:00,,,0.5,0.5,10.049
13-12-2023 05:00,,,0.5,0.5,10.053
13-12-2023 09:00,,,1.0,1.0,10.055
13-12-2023 10:00,,,0.5,0.5,10.057
13-12-2023 11:00,,,5.0,5.0,10.057
13-12-2023 12:00,,,3.0,3.0,10.054
13-12-2023 13:00,,,4.0,4.0,10.053
13-12-2023 14:00,,,4.5,4.5,10.054
13-12-2023 15:00,,,0.5,0.5,10.055
13-12-2023 16:00,,,2.0,2.0,10.057
13-12-2023 17:00,,,1.0,1.0,10.057
13-12-2023 18:00,,,0.5,0.5,10.055
13-12-2023 19:00,,,1.0,1.0,10.049
13-12-2023 20:00,,,0.5,0.5,10.057
13-12-2023 21:00,,,1.5,1.5,10.052
13-12-2024 10:00,,1.0,,1.0,10.063
13-12-2024 13:00,,0.5,,0.5,10.064
13-12-2024 14:00,,1.5,,1.5,10.064
13-12-2024 17:00,,0.5,,0.5,10.064
13-12-2024 20:00,,1.0,,1.0,10.064
14-01-2022 04:00,,,1.0,1.0,1.209
14-01-2022 05:00,0.5,,,0.5,1.185
14-01-2025 11:00,,0.5,,0.5,10.065
14-07-2024 09:00,,0.5,,0.5,10.064
14-07-2024 14:00,,,0.5,0.5,10.064
14-07-2024 15:00,,0.5,,0.5,10.064
14-07-2024 23:00,0.5,,,0.5,10.064
14-10-2022 15:00,,1.0,,1.0,0.127
14-10-2024 02:00,8.0,,0.5,4.25,10.065
14-10-2024 03:00,31.5,,17.5,24.5,10.065
14-10-2024 04:00,7.0,,6.0,6.5,10.065
14-10-2024 06:00,1.0,,0.5,0.75,10.064
14-10-2024 12:00,,,0.5,0.5,10.064
14-10-2024 13:00,0.5,,,0.5,10.065
14-10-2024 19:00,0.5,,1.0,0.75,10.065
14-10-2024 21:00,1.5,,5.0,3.25,10.064
14-10-2024 22:00,0.5,,0.5,0.5,10.064
14-10-2024 23:00,3.5,,18.0,10.75,10.064
14-10-2025 04:00,,3.0,,3.0,3.25
14-10-2025 05:00,,5.0,,5.0,3.25
14-10-2025 06:00,1.5,,2.5,2.0,3.25
14-10-2025 08:00,0.5,,1.0,0.75,3.25
14-10-2025 09:00,,0.5,,0.5,3.25
14-10-2025 10:00,,0.5,2.5,1.5,3.25
14-10-2025 11:00,,11.5,,11.5,3.25
14-10-2025 12:00,,0.5,,0.5,3.25
14-10-2025 23:00,,,5.5,5.5,3.25
14-11-2022 08:00,,1.0,,1.0,1.47
14-11-2022 12:00,,2.5,,2.5,1.429
14-11-2022 14:00,3.5,0.5,1.5,1.8333333333333333,1.413
14-11-2022 19:00,,,7.5,7.5,1.427
14-11-2022 20:00,1.5,,0.5,1.0,1.418
14-11-2022 21:00,14.5,,12.0,13.25,1.41
14-11-2024 01:00,,,0.5,0.5,10.064
14-11-2024 02:00,3.0,3.0,2.5,2.8333333333333335,10.064
14-11-2024 03:00,4.5,1.0,2.0,2.5,10.064
14-11-2024 06:00,,0.5,,0.5,10.064
14-11-2024 13:00,,1.0,,1.0,10.064
14-11-2024 14:00,,0.5,,0.5,10.065
14-11-2024 17:00,2.0,,,2.0,10.065
14-11-2024 18:00,,,2.0,2.0,10.065
14-11-2024 23:00,4.0,,1.5,2.75,10.065
14-12-2022 09:00,,10.5,,10.5,1.253
14-12-2022 10:00,,13.5,,13.5,1.245
14-12-2022 22:00,,2.0,,2.0,1.178
14-12-2023 00:00,,,1.0,1.0,10.051
14-12-2023 01:00,,,0.5,0.5,10.045
14-12-2023 02:00,,,1.5,1.5,10.054
14-12-2023 03:00,,,0.5,0.5,10.052
14-12-2023 08:00,,,5.0,5.0,10.059
14-12-2023 09:00,,,50.0,50.0,10.049
14-12-2023 10:00,,,1.5,1.5,10.059
14-12-2023 11:00,,,0.5,0.5,10.06
14-12-2023 14:00,,,1.0,1.0,10.058
14-12-2023 15:00,,,1.5,1.5,10.06
14-12-2023 16:00,,,2.5,2.5,10.057
14-12-2023 17:00,,,0.5,0.5,10.057
14-12-2023 18:00,,,1.0,1.0,10.056
14-12-2023 19:00,,,3.0,3.0,10.057
14-12-2023 20:00,,,0.5,0.5,10.055
14-12-2023 21:00,,,0.5,0.5,10.052
14-12-2023 22:00,,,1.0,1.0,10.056
14-12-2023 23:00,,,1.5,1.5,10.047
14-12-2024 01:00,,1.0,,1.0,10.064
14-12-2024 08:00,,2.5,,2.5,10.064
14-12-2024 11:00,,1.0,,1.0,10.065
14-12-2024 16:00,,0.5,,0.5,10.064
14-12-2024 17:00,,0.5,,0.5,10.064
15-04-2024 15:00,,,9.0,9.0,10.064
15-07-2024 03:00,,,0.5,0.5,10.065
15-07-2024 05:00,0.5,,,0.5,10.064
15-07-2024 11:00,,0.5,,0.5,10.064
15-07-2024 12:00,,0.5,,0.5,10.064
15-07-2024 13:00,0.5,0.5,0.5,0.5,10.064
15-07-2024 14:00,0.5,0.5,0.5,0.5,10.064
15-07-2024 15:00,0.5,1.0,1.0,0.8333333333333334,10.064
15-07-2024 16:00,,,0.5,0.5,10.065
15-08-2024 03:00,,,1.0,1.0,10.064
15-08-2024 07:00,,,0.5,0.5,10.064
15-10-2022 11:00,,0.5,,0.5,0.136
15-10-2022 22:00,,0.5,,0.5,0.164
15-10-2024 00:00,46.5,,20.0,33.25,10.064
15-10-2024 01:00,0.5,,1.5,1.0,10.064
15-10-2024 03:00,1.0,,,1.0,10.065
15-10-2024 04:00,1.0,,,1.0,10.064
15-10-2024 07:00,3.5,,,3.5,10.064
15-10-2024 08:00,7.0,,10.0,8.5,10.062
15-10-2024 09:00,3.5,,,3.5,10.062
15-10-2024 10:00,25.0,,24.5,24.75,10.063
15-10-2024 11:00,24.5,,88.0,56.25,10.061
15-10-2024 12:00,9.0,,10.5,9.75,10.062
15-10-2024 13:00,,,3.0,3.0,10.061
15-10-2024 14:00,9.0,,19.0,14.0,10.062
15-10-2024 15:00,,,3.0,3.0,10.061
15-10-2024 16:00,3.5,,3.0,3.25,10.062
15-10-2024 17:00,2.5,,1.0,1.75,10.062
15-10-2024 18:00,3.0,,1.0,2.0,10.062
15-10-2024 19:00,6.0,,5.0,5.5,10.062
15-10-2024 20:00,8.0,,9.5,8.75,10.062
15-10-2024 21:00,1.5,,,1.5,10.061
15-10-2024 22:00,,,0.5,0.5,10.06
15-10-2024 23:00,0.5,,2.5,1.5,10.06
15-10-2025 00:00,,,1.0,1.0,3.25
15-10-2025 01:00,1.0,,,1.0,3.25
15-10-2025 03:00,1.0,,,1.0,3.25
15-10-2025 04:00,4.5,,19.0,11.75,3.25
15-10-2025 05:00,5.5,,11.0,8.25,3.25
15-10-2025 06:00,0.5,,,0.5,3.25
15-10-2025 07:00,2.5,,2.5,2.5,3.25
15-10-2025 08:00,,0.5,1.0,0.75,3.25
15-10-2025 09:00,2.0,1.0,0.5,1.1666666666666667,3.25
15-10-2025 10:00,,0.5,,0.5,3.25
15-10-2025 11:00,0.5,,,0.5,3.25
15-10-2025 16:00,0.5,,,0.5,3.25
15-10-2025 17:00,,5.5,,5.5,3.25
15-10-2025 23:00,2.0,0.5,,1.25,3.25
15-11-2022 05:00,0.5,,0.5,0.5,1.338
15-11-2022 11:00,,2.5,,2.5,1.29
15-11-2022 13:00,,1.0,,1.0,1.283
15-11-2022 14:00,,1.0,,1.0,1.279
15-11-2022 20:00,,1.0,,1.0,1.211
15-11-2024 00:00,3.5,,7.0,5.25,10.065
15-11-2024 02:00,1.0,,,1.0,10.065
15-11-2024 04:00,3.0,,2.0,2.5,10.064
15-11-2024 07:00,0.5,,2.5,1.5,10.065
15-11-2024 08:00,0.5,,,0.5,10.064
15-12-2022 01:00,,3.0,,3.0,1.215
15-12-2022 02:00,,0.5,,0.5,1.216
15-12-2022 23:00,,0.5,,0.5,0.952
15-12-2023 00:00,,,10.5,10.5,10.042
15-12-2023 01:00,,,12.0,12.0,10.048
15-12-2023 02:00,,,3.5,3.5,10.046
15-12-2023 03:00,,,3.5,3.5,10.041
15-12-2023 04:00,,,9.5,9.5,10.034
15-12-2023 05:00,,,2.0,2.0,10.027
15-12-2023 06:00,,,3.0,3.0,10.014
15-12-2023 07:00,,,1.0,1.0,10.057
15-12-2023 08:00,,,1.5,1.5,10.058
15-12-2023 09:00,,,6.0,6.0,10.045
15-12-2023 10:00,,,8.5,8.5,10.06
15-12-2023 11:00,,,0.5,0.5,10.055
15-12-2023 12:00,,,1.0,1.0,10.055
15-12-2023 13:00,,,3.5,3.5,10.057
15-12-2023 14:00,4.0,,4.5,4.25,10.061
15-12-2023 15:00,0.5,,2.5,1.5,10.06
15-12-2023 16:00,,,2.5,2.5,10.052
15-12-2023 17:00,,,11.0,11.0,10.044
15-12-2023 20:00,,,43.0,43.0,10.058
15-12-2023 21:00,,,11.5,11.5,10.063
15-12-2023 22:00,0.5,,85.0,42.75,10.059
15-12-2023 23:00,,,75.5,75.5,10.06
15-12-2024 09:00,,1.0,,1.0,10.064
16-04-2025 13:00,,,5.0,5.0,10.064
16-04-2025 14:00,,,0.5,0.5,10.065
16-05-2024 07:00,1.0,,0.5,0.75,10.064
16-05-2024 08:00,0.5,,1.0,0.75,10.064
16-05-2024 11:00,,,0.5,0.5,10.065
16-05-2024 12:00,1.0,,1.5,1.25,10.064
16-05-2024 13:00,2.0,,2.0,2.0,10.065
16-05-2024 14:00,0.5,,1.0,0.75,10.064
16-05-2024 15:00,0.5,,0.5,0.5,10.064
16-05-2024 19:00,,,0.5,0.5,10.063
16-06-2024 23:00,,,1.5,1.5,10.063
16-08-2025 16:00,,,2.0,2.0,10.065
16-08-2025 17:00,,,2.5,2.5,10.065
16-08-2025 21:00,,,3.0,3.0,10.065
16-10-2022 10:00,,1.5,,1.5,0.189
16-10-2024 00:00,,,1.5,1.5,10.059
16-10-2024 01:00,0.5,,0.5,0.5,10.059
16-10-2024 02:00,1.0,,1.0,1.0,10.059
16-10-2024 03:00,1.0,,0.5,0.75,10.06
16-10-2024 04:00,,,1.0,1.0,10.06
16-10-2024 05:00,1.0,,0.5,0.75,10.06
16-10-2024 06:00,0.5,,0.5,0.5,10.06
16-10-2024 07:00,1.0,,3.0,2.0,10.06
16-10-2024 08:00,0.5,,1.0,0.75,10.059
16-10-2025 19:00,,15.0,0.5,7.75,3.25
16-10-2025 20:00,,2.0,1.5,1.75,3.25
16-10-2025 21:00,,1.0,2.5,1.75,3.25
16-11-2022 16:00,,0.5,,0.5,1.112
16-11-2022 17:00,4.5,4.0,,4.25,1.103
16-11-2022 18:00,,5.0,,5.0,1.107
16-11-2022 19:00,,3.5,,3.5,1.036
16-11-2024 01:00,1.0,,17.0,9.0,10.065
16-11-2024 08:00,1.0,,,1.0,10.064
16-11-2024 13:00,,,0.5,0.5,10.064
16-11-2024 14:00,,0.5,,0.5,10.064
16-11-2024 17:00,0.5,,,0.5,10.064
16-11-2024 18:00,4.0,1.0,,2.5,10.065
16-11-2024 19:00,0.5,,,0.5,10.065
16-12-2022 03:00,,1.0,,1.0,0.911
16-12-2023 00:00,,,4.0,4.0,10.063
16-12-2023 01:00,,,13.5,13.5,10.061
16-12-2023 02:00,,,5.0,5.0,10.061
16-12-2023 03:00,,,0.5,0.5,10.062
16-12-2023 04:00,,,7.0,7.0,10.062
16-12-2023 05:00,,,2.0,2.0,10.063
16-12-2023 06:00,,,2.5,2.5,10.061
16-12-2023 07:00,,,1.0,1.0,10.062
16-12-2023 08:00,0.5,,0.5,0.5,10.063
16-12-2023 09:00,,,1.0,1.0,10.062
16-12-2023 11:00,,,1.0,1.0,10.063
16-12-2023 12:00,,,4.0,4.0,10.063
16-12-2023 13:00,,,0.5,0.5,10.062
16-12-2023 14:00,,,0.5,0.5,10.062
16-12-2024 00:00,,1.0,,1.0,10.064
16-12-2025 11:00,,,3.5,3.5,3.25
16-12-2025 12:00,,,0.5,0.5,3.25
16-12-2025 13:00,,,1.0,1.0,3.25
16-12-2025 14:00,,,7.0,7.0,3.25
16-12-2025 18:00,,,0.5,0.5,3.25
17-01-2022 06:00,,0.5,,0.5,0.554
17-01-2022 07:00,2.0,,,2.0,0.594
17-01-2022 08:00,1.5,,2.0,1.75,0.594
17-01-2022 09:00,2.0,,,2.0,0.585
17-01-2022 10:00,,1.0,5.0,3.0,0.617
17-01-2022 11:00,1.5,,,1.5,0.695
17-01-2022 16:00,1.5,,,1.5,1.418
17-04-2025 12:00,,1.0,,1.0,10.063
17-04-2025 13:00,3.0,,,3.0,10.064
17-05-2024 11:00,,,14.0,14.0,10.064
17-05-2024 12:00,,,1.5,1.5,10.064
17-06-2024 10:00,,,0.5,0.5,10.065
17-08-2025 19:00,,,1.0,1.0,10.065
17-08-2025 20:00,,,0.5,0.5,10.065
17-08-2025 21:00,,,2.0,2.0,10.065
17-08-2025 22:00,,,1.0,1.0,10.065
17-08-2025 23:00,,,0.5,0.5,10.065
17-09-2025 03:00,,2.5,,2.5,3.25
17-09-2025 04:00,28.0,3.5,,15.75,3.25
17-09-2025 05:00,6.0,1.0,0.5,2.5,3.25
17-09-2025 06:00,,0.5,,0.5,3.25
17-09-2025 07:00,,0.5,,0.5,3.25
17-10-2022 00:00,,0.5,,0.5,0.011
17-10-2022 01:00,0.5,0.5,,0.5,0.006
17-10-2022 09:00,5.5,,,5.5,0.19
17-10-2022 11:00,,1.0,,1.0,0.176
17-10-2022 12:00,,2.0,,2.0,0.184
17-10-2024 12:00,,19.0,,19.0,10.064
17-10-2025 01:00,0.5,,4.5,2.5,3.25
17-10-2025 02:00,24.0,,9.5,16.75,3.25
17-10-2025 03:00,2.5,,,2.5,3.25
17-10-2025 04:00,0.5,,3.0,1.75,3.25
17-10-2025 05:00,0.5,0.5,,0.5,3.25
17-10-2025 06:00,1.5,2.0,1.0,1.5,3.25
17-10-2025 07:00,0.5,,2.5,1.5,3.25
17-10-2025 08:00,0.5,,1.5,1.0,3.25
17-10-2025 09:00,2.0,,12.0,7.0,3.25
17-10-2025 12:00,,0.5,,0.5,3.272
17-10-2025 15:00,9.5,0.5,1.5,3.8333333333333335,3.27
17-10-2025 16:00,,1.5,,1.5,3.268
17-10-2025 17:00,,2.5,,2.5,3.274
17-10-2025 18:00,,2.0,,2.0,3.25
17-10-2025 19:00,,,1.0,1.0,3.26
17-10-2025 22:00,,,5.5,5.5,3.25
17-10-2025 23:00,12.0,,11.0,11.5,3.25
17-11-2025 04:00,1.0,,,1.0,3.25
17-11-2025 07:00,0.5,,,0.5,3.25
17-11-2025 08:00,,,0.5,0.5,3.25
17-11-2025 12:00,0.5,,1.5,1.0,3.25
17-11-2025 14:00,,,0.5,0.5,3.25
17-11-2025 15:00,1.5,,2.0,1.75,3.25
17-11-2025 16:00,0.5,,1.0,0.75,3.25
17-11-2025 17:00,,1.0,,1.0,3.25
17-11-2025 19:00,0.5,,0.5,0.5,3.25
17-11-2025 21:00,0.5,,0.5,0.5,3.25
17-11-2025 22:00,,,0.5,0.5,3.25
17-12-2023 02:00,,,1.0,1.0,10.045
17-12-2023 10:00,,,0.5,0.5,10.056
17-12-2023 15:00,,,0.5,0.5,10.06
18-01-2025 21:00,,1.0,,1.0,10.064
18-01-2025 22:00,0.5,0.5,1.0,0.6666666666666666,10.064
18-01-2025 23:00,,6.0,,6.0,10.063
18-06-2023 15:00,0.5,,,0.5,0.002
18-06-2024 02:00,3.0,,5.5,4.25,10.065
18-06-2024 03:00,10.5,,31.5,21.0,10.063
18-06-2024 04:00,1.5,,3.5,2.5,10.064
18-06-2024 05:00,0.5,,,0.5,10.062
18-06-2024 22:00,4.5,,,4.5,10.064
18-06-2024 23:00,48.0,1.0,30.5,26.5,10.064
18-07-2024 18:00,,,10.0,10.0,10.064
18-07-2024 19:00,0.5,,1.0,0.75,10.064
18-09-2025 16:00,,1.0,,1.0,3.25
18-09-2025 18:00,,1.0,,1.0,3.25
18-09-2025 19:00,1.0,15.5,1.5,6.0,3.25
18-09-2025 20:00,1.5,4.5,19.0,8.333333333333334,3.25
18-09-2025 21:00,1.0,,3.0,2.0,3.25
18-09-2025 22:00,,,0.5,0.5,3.25
18-10-2024 03:00,,,3.0,3.0,10.063
18-10-2024 07:00,9.0,,13.0,11.0,10.063
18-10-2024 08:00,8.5,,,8.5,10.064
18-10-2025 00:00,7.0,,1.0,4.0,3.25
18-10-2025 01:00,10.5,,0.5,5.5,3.25
18-10-2025 07:00,,4.0,2.0,3.0,3.25
18-10-2025 09:00,,,0.5,0.5,3.25
18-10-2025 10:00,,1.0,,1.0,3.25
18-10-2025 11:00,0.5,,0.5,0.5,3.25
18-10-2025 12:00,2.0,,1.0,1.5,3.25
18-10-2025 13:00,1.0,,1.0,1.0,3.25
18-10-2025 14:00,0.5,,0.5,0.5,3.25
18-11-2025 00:00,0.5,,1.0,0.75,3.25
18-11-2025 07:00,,,0.5,0.5,3.25
18-11-2025 13:00,0.5,1.0,,0.75,3.25
18-11-2025 14:00,,1.0,1.0,1.0,3.25
18-11-2025 16:00,3.0,,0.5,1.75,3.25
18-11-2025 17:00,3.0,6.0,4.0,4.333333333333333,3.25
18-11-2025 20:00,3.0,,2.5,2.75,3.25
18-12-2022 12:00,,4.5,,4.5,0.292
18-12-2023 10:00,,,0.5,0.5,10.056
18-12-2024 11:00,1.0,,0.5,0.75,10.064
18-12-2024 12:00,0.5,0.5,0.5,0.5,10.064
18-12-2024 13:00,2.0,1.0,2.0,1.6666666666666667,10.063
18-12-2024 14:00,5.5,1.5,,3.5,10.063
18-12-2024 15:00,7.5,,4.5,6.0,10.063
18-12-2024 16:00,13.0,4.5,13.0,10.166666666666666,10.062
18-12-2024 17:00,2.5,1.0,5.0,2.8333333333333335,10.063
18-12-2024 18:00,,,0.5,0.5,10.064
18-12-2024 20:00,,1.0,,1.0,10.064
18-12-2024 21:00,0.5,,,0.5,10.063
18-12-2024 22:00,,1.5,0.5,1.0,10.064
18-12-2024 23:00,,0.5,,0.5,10.063
19-01-2025 00:00,0.5,1.5,0.5,0.8333333333333334,10.063
19-01-2025 02:00,,,1.5,1.5,10.063
19-01-2025 03:00,0.5,,0.5,0.5,10.063
19-01-2025 04:00,2.5,,,2.5,10.063
19-01-2025 05:00,7.0,,,7.0,10.063
19-01-2025 06:00,,,4.0,4.0,10.062
19-01-2025 07:00,0.5,,,0.5,10.062
19-01-2025 10:00,,,0.5,0.5,10.062
19-01-2025 13:00,,20.0,,20.0,10.064
19-01-2025 15:00,,0.5,,0.5,10.064
19-03-2025 16:00,,2.5,,2.5,10.064
19-03-2025 17:00,,0.5,,0.5,10.064
19-04-2025 18:00,,0.5,,0.5,10.065
19-05-2024 01:00,6.0,,,6.0,10.064
19-05-2024 02:00,5.0,10.5,,7.75,10.064
19-06-2024 00:00,0.5,,1.0,0.75,10.063
19-06-2024 01:00,1.0,,0.5,0.75,10.064
19-06-2024 02:00,,,0.5,0.5,10.064
19-06-2024 16:00,,,2.0,2.0,10.064
19-07-2024 14:00,1.0,,,1.0,10.064
19-10-2024 04:00,37.5,,18.5,28.0,10.063
19-10-2024 05:00,0.5,,,0.5,10.063
19-10-2025 03:00,3.0,,0.5,1.75,3.25
19-10-2025 07:00,1.0,,1.0,1.0,3.25
19-10-2025 10:00,1.0,,1.0,1.0,3.25
19-10-2025 11:00,1.5,,1.5,1.5,3.25
19-10-2025 12:00,,1.0,,1.0,3.25
19-11-2025 01:00,,,0.5,0.5,3.25
19-12-2024 01:00,0.5,,,0.5,10.063
19-12-2024 02:00,0.5,0.5,0.5,0.5,10.063
19-12-2024 03:00,0.5,,0.5,0.5,10.062
19-12-2024 05:00,,1.0,,1.0,10.063
19-12-2024 08:00,1.5,,1.0,1.25,10.062
19-12-2024 09:00,4.0,,1.5,2.75,10.063
20-01-2025 11:00,,0.5,,0.5,10.064
20-03-2025 02:00,,0.5,,0.5,10.064
20-05-2024 05:00,0.5,,,0.5,10.064
20-05-2024 06:00,0.5,,,0.5,10.065
20-05-2024 07:00,,,5.5,5.5,10.064
20-05-2024 08:00,,,0.5,0.5,10.064
20-05-2024 09:00,,0.5,,0.5,10.064
20-06-2024 22:00,24.5,,3.0,13.75,10.064
20-08-2025 07:00,,0.5,,0.5,3.25
20-09-2025 02:00,29.5,,6.5,18.0,3.261
20-09-2025 03:00,2.5,,5.5,4.0,3.25
20-09-2025 04:00,2.0,,2.0,2.0,3.25
20-09-2025 05:00,,,0.5,0.5,3.25
20-09-2025 06:00,0.5,,0.5,0.5,3.25
20-09-2025 07:00,,,1.0,1.0,3.25
20-09-2025 08:00,0.5,,1.0,0.75,3.25
20-09-2025 09:00,,,0.5,0.5,3.25
20-10-2022 18:00,2.5,,0.5,1.5,0.35
20-10-2024 04:00,,,11.5,11.5,10.061
20-10-2024 05:00,26.5,,17.5,22.0,10.06
20-10-2024 06:00,1.5,,,1.5,10.058
20-10-2024 11:00,,,1.0,1.0,10.064
20-10-2025 00:00,1.5,0.5,8.5,3.5,3.25
20-10-2025 01:00,,,1.5,1.5,3.261
20-10-2025 03:00,,,10.0,10.0,3.25
20-10-2025 06:00,0.5,,0.5,0.5,3.25
20-10-2025 09:00,7.5,5.0,13.5,8.666666666666666,3.25
20-10-2025 10:00,,1.0,,1.0,3.259
20-10-2025 13:00,,5.0,,5.0,3.25
20-10-2025 14:00,1.0,2.0,0.5,1.1666666666666667,3.25
20-10-2025 15:00,,2.0,,2.0,3.265
20-12-2024 06:00,,,0.5,0.5,10.064
20-12-2024 07:00,3.0,67.5,,35.25,10.063
20-12-2024 12:00,,10.0,,10.0,10.064
20-12-2024 18:00,,1.5,,1.5,10.065
20-12-2024 19:00,,3.0,,3.0,10.064
20-12-2024 21:00,,2.5,,2.5,10.064
20-12-2024 23:00,,4.0,,4.0,10.064
21-05-2024 04:00,0.5,,,0.5,10.064
21-05-2024 05:00,1.5,1.0,,1.25,10.064
21-05-2024 07:00,,,0.5,0.5,10.064
21-05-2024 15:00,0.5,,,0.5,10.064
21-05-2024 16:00,,,3.5,3.5,10.065
21-05-2024 18:00,0.5,,,0.5,10.064
21-06-2024 19:00,,,0.5,0.5,10.065
21-09-2024 00:00,,,8.5,8.5,10.066
21-09-2024 01:00,6.0,1.0,5.5,4.166666666666667,10.065
21-09-2024 02:00,1.5,,,1.5,10.064
21-09-2024 03:00,,,3.0,3.0,10.064
21-09-2024 04:00,1.0,1.0,6.5,2.8333333333333335,10.064
21-09-2024 05:00,1.5,1.0,3.0,1.8333333333333333,10.065
21-09-2024 06:00,2.5,1.5,2.0,2.0,10.064
21-09-2024 07:00,1.5,0.5,1.0,1.0,10.065
21-09-2025 17:00,,0.5,,0.5,3.25
21-09-2025 23:00,,,2.0,2.0,3.25
21-10-2022 02:00,0.5,,,0.5,0.409
21-10-2022 04:00,,5.5,,5.5,0.406
21-10-2022 05:00,,2.5,,2.5,0.404
21-10-2022 06:00,3.5,,,3.5,0.407
21-10-2022 07:00,29.5,,14.5,22.0,0.509
21-10-2024 06:00,0.5,,1.0,0.75,10.054
21-10-2024 10:00,,,0.5,0.5,10.062
21-10-2025 00:00,,,1.0,1.0,3.25
21-10-2025 04:00,,,0.5,0.5,3.25
21-10-2025 06:00,3.0,,5.5,4.25,3.25
21-10-2025 08:00,,0.5,16.0,8.25,3.25
21-10-2025 09:00,1.5,,2.0,1.75,3.25
21-10-2025 10:00,0.5,3.5,0.5,1.5,3.25
21-10-2025 11:00,,1.0,,1.0,3.25
21-10-2025 12:00,,1.0,0.5,0.75,3.25
21-10-2025 13:00,15.0,4.0,14.0,11.0,3.25
21-10-2025 14:00,0.5,,,0.5,3.25
21-10-2025 15:00,1.5,,7.5,4.5,3.25
21-10-2025 17:00,3.0,,0.5,1.75,3.25
21-10-2025 18:00,5.5,,1.0,3.25,3.25
21-10-2025 20:00,,,0.5,0.5,3.25
21-10-2025 23:00,2.0,,3.5,2.75,3.25
21-11-2022 05:00,,1.5,,1.5,0.282
21-11-2022 20:00,,,0.5,0.5,0.105
21-11-2022 21:00,1.0,,1.0,1.0,0.029
21-11-2022 22:00,0.5,,1.0,0.75,0.038
21-11-2022 23:00,0.5,,1.0,0.75,0.049
21-11-2025 03:00,1.0,,0.5,0.75,3.25
21-11-2025 04:00,,,0.5,0.5,3.25
21-11-2025 06:00,2.5,,4.5,3.5,3.25
21-11-2025 11:00,,0.5,,0.5,3.25
21-11-2025 12:00,,0.5,,0.5,3.25
21-11-2025 16:00,0.5,3.0,1.0,1.5,3.25
21-11-2025 17:00,,,1.0,1.0,3.25
21-11-2025 18:00,,,0.5,0.5,3.25
21-11-2025 19:00,,0.5,,0.5,3.25
21-11-2025 20:00,0.5,,0.5,0.5,3.25
21-11-2025 22:00,0.5,3.0,1.0,1.5,3.25
21-11-2025 23:00,0.5,,,0.5,3.25
21-12-2022 14:00,,1.0,,1.0,0.072
21-12-2024 03:00,,2.5,,2.5,10.064
21-12-2024 04:00,,9.5,,9.5,10.063
22-03-2025 15:00,,10.5,,10.5,10.064
22-05-2024 03:00,,1.0,,1.0,10.064
22-05-2024 11:00,0.5,,,0.5,10.065
22-05-2024 12:00,2.0,,,2.0,10.064
22-05-2024 19:00,,0.5,,0.5,10.065
22-05-2024 20:00,0.5,,,0.5,10.064
22-05-2024 23:00,,0.5,,0.5,10.064
22-08-2022 16:00,,,0.5,0.5,0.563
22-08-2022 23:00,,0.5,,0.5,0.455
22-08-2025 05:00,2.5,0.5,,1.5,3.25
22-08-2025 06:00,26.5,,55.0,40.75,3.25
22-08-2025 07:00,3.5,,7.5,5.5,3.25
22-08-2025 20:00,,4.0,0.5,2.25,3.25
22-08-2025 21:00,,,0.5,0.5,3.25
22-09-2025 02:00,,1.0,0.5,0.75,3.25
22-09-2025 03:00,,0.5,,0.5,3.25
22-09-2025 04:00,,1.5,,1.5,3.25
22-09-2025 05:00,,0.5,,0.5,3.25
22-09-2025 23:00,1.0,,,1.0,3.25
22-10-2022 01:00,,,0.5,0.5,0.8
22-10-2022 04:00,1.5,,,1.5,0.767
22-10-2022 15:00,3.0,,1.0,2.0,0.697
22-10-2022 16:00,2.0,,0.5,1.25,0.69
22-10-2022 21:00,0.5,0.5,0.5,0.5,0.629
22-10-2025 03:00,4.5,,8.5,6.5,3.25
22-10-2025 04:00,3.5,,0.5,2.0,3.25
22-10-2025 07:00,2.0,,7.0,4.5,3.25
22-10-2025 08:00,3.5,,,3.5,3.25
22-10-2025 11:00,2.0,,,2.0,3.25
22-10-2025 12:00,,,0.5,0.5,3.25
22-10-2025 14:00,1.5,,,1.5,3.25
22-10-2025 23:00,,,1.0,1.0,3.25
22-11-2022 00:00,1.5,,1.0,1.25,0.047
22-11-2022 07:00,,,0.5,0.5,0.059
22-11-2022 11:00,0.5,,,0.5,0.051
22-11-2025 00:00,1.0,,,1.0,3.25
22-11-2025 03:00,0.5,,0.5,0.5,3.25
22-12-2024 06:00,,17.0,,17.0,10.063
22-12-2024 07:00,,12.0,,12.0,10.063
22-12-2024 08:00,,2.0,,2.0,10.064
22-12-2024 09:00,,0.5,,0.5,10.063
22-12-2024 10:00,,14.5,,14.5,10.065
22-12-2024 19:00,,1.5,,1.5,10.064
23-06-2024 22:00,0.5,,,0.5,10.064
23-07-2024 20:00,,,2.0,2.0,10.065
23-07-2024 21:00,13.5,,4.5,9.0,10.064
23-08-2022 04:00,,0.5,,0.5,0.368
23-08-2025 03:00,2.5,13.0,27.5,14.333333333333334,3.25
23-08-2025 04:00,36.5,15.0,44.5,32.0,3.25
23-08-2025 05:00,4.5,5.0,6.5,5.333333333333333,3.25
23-08-2025 06:00,3.0,4.0,4.5,3.8333333333333335,3.25
23-08-2025 07:00,4.5,2.0,4.0,3.5,3.25
23-08-2025 08:00,2.0,1.0,1.0,1.3333333333333333,3.25
23-10-2025 00:00,11.5,,,11.5,3.25
23-10-2025 01:00,3.5,,2.0,2.75,3.25
23-10-2025 02:00,1.0,,1.5,1.25,3.25
23-10-2025 03:00,2.0,,2.0,2.0,3.25
23-10-2025 04:00,1.0,,0.5,0.75,3.25
23-10-2025 06:00,0.5,,0.5,0.5,3.25
23-11-2022 00:00,16.5,,,16.5,0.063
23-11-2022 01:00,4.0,,0.5,2.25,0.061
23-11-2022 02:00,,,0.5,0.5,0.06
23-11-2025 03:00,1.0,,,1.0,3.25
23-11-2025 04:00,0.5,,,0.5,3.25
23-12-2023 11:00,,,0.5,0.5,10.059
23-12-2023 15:00,,,0.5,0.5,10.062
23-12-2024 05:00,,3.0,,3.0,10.064
23-12-2024 06:00,,2.0,,2.0,10.064
24-01-2022 04:00,,,4.5,4.5,0.572
24-01-2022 05:00,,,1.0,1.0,0.558
24-08-2022 07:00,,,0.5,0.5,0.001
24-09-2024 01:00,8.5,,17.5,13.0,10.065
24-09-2024 03:00,2.0,,1.0,1.5,10.064
24-09-2024 04:00,0.5,,1.0,0.75,10.065
24-09-2024 17:00,2.5,,3.0,2.75,10.064
24-09-2024 18:00,,,0.5,0.5,10.065
24-09-2024 19:00,,,0.5,0.5,10.065
24-09-2025 01:00,,,2.5,2.5,3.25
24-09-2025 10:00,,,0.5,0.5,3.276
24-10-2025 01:00,,,1.0,1.0,3.25
24-10-2025 02:00,4.5,,29.0,16.75,3.25
24-10-2025 03:00,2.5,,2.0,2.25,3.25
24-10-2025 04:00,2.5,,1.0,1.75,3.25
24-10-2025 05:00,1.5,,0.5,1.0,3.25
24-10-2025 12:00,0.5,,0.5,0.5,3.25
24-10-2025 14:00,0.5,,0.5,0.5,3.25
24-11-2022 07:00,4.0,,2.5,3.25,0.065
24-12-2022 21:00,7.0,,4.5,5.75,0.056
24-12-2022 22:00,2.5,0.5,4.0,2.3333333333333335,0.063
24-12-2022 23:00,,,2.0,2.0,0.063
24-12-2023 19:00,,,0.5,0.5,10.063
24-12-2024 09:00,,0.5,0.5,0.5,10.065
24-12-2024 10:00,0.5,,,0.5,10.064
24-12-2024 11:00,,0.5,,0.5,10.064
25-06-2024 21:00,3.5,,,3.5,10.065
25-06-2024 22:00,0.5,,,0.5,10.064
25-09-2024 18:00,,,7.0,7.0,10.064
25-09-2024 19:00,,,0.5,0.5,10.065
25-09-2024 22:00,,11.0,,11.0,10.065
25-10-2025 07:00,,,1.5,1.5,3.25
25-10-2025 08:00,,,1.5,1.5,3.25
25-10-2025 09:00,0.5,,0.5,0.5,3.25
25-10-2025 14:00,,,15.0,15.0,3.25
25-10-2025 15:00,,,0.5,0.5,3.25
25-10-2025 17:00,,,2.0,2.0,3.25
25-10-2025 18:00,,,1.0,1.0,3.25
25-11-2022 06:00,,,1.0,1.0,0.073
25-11-2024 23:00,12.0,,5.0,8.5,10.065
25-12-2022 02:00,2.0,,1.0,1.5,0.069
25-12-2022 03:00,1.0,,,1.0,0.066
25-12-2022 04:00,6.0,,1.5,3.75,0.064
25-12-2022 05:00,1.0,,2.0,1.5,0.061
25-12-2022 06:00,0.5,,,0.5,0.06
25-12-2022 07:00,0.5,,2.0,1.25,0.054
25-12-2022 08:00,3.5,,4.0,3.75,0.064
25-12-2022 09:00,1.5,,1.5,1.5,0.055
25-12-2022 10:00,2.5,,1.0,1.75,0.057
25-12-2022 11:00,2.5,,1.5,2.0,0.057
25-12-2022 12:00,0.5,,0.5,0.5,0.057
25-12-2023 01:00,,,1.0,1.0,10.063
25-12-2023 08:00,,,0.5,0.5,10.06
25-12-2023 10:00,,,0.5,0.5,10.06
25-12-2023 12:00,,,0.5,0.5,10.06
25-12-2023 20:00,,,0.5,0.5,10.063
25-12-2024 10:00,,1.0,,1.0,10.064
25-12-2024 16:00,,0.5,,0.5,10.064
25-12-2024 17:00,1.0,0.5,0.5,0.6666666666666666,10.064
25-12-2024 18:00,,1.0,0.5,0.75,10.064
26-03-2025 23:00,,0.5,,0.5,10.065
26-08-2022 05:00,,0.5,,0.5,0.106
26-08-2022 10:00,,0.5,,0.5,0.219
26-08-2022 12:00,,0.5,,0.5,0.234
26-08-2022 14:00,,0.5,,0.5,0.233
26-08-2022 16:00,,0.5,,0.5,0.263
26-08-2022 18:00,,0.5,,0.5,0.349
26-08-2022 19:00,,0.5,,0.5,0.425
26-08-2022 21:00,,0.5,,0.5,0.654
26-08-2022 23:00,,0.5,,0.5,0.816
26-09-2025 19:00,2.0,,1.5,1.75,3.25
26-09-2025 21:00,1.5,6.5,0.5,2.8333333333333335,3.25
26-09-2025 22:00,,1.5,,1.5,3.25
26-11-2024 05:00,,,1.0,1.0,10.064
26-11-2024 09:00,,0.5,,0.5,10.064
26-11-2024 10:00,2.0,,1.0,1.5,10.065
26-11-2024 11:00,21.0,,40.5,30.75,10.065
26-11-2024 12:00,8.5,20.0,15.0,14.5,10.064
26-11-2024 13:00,3.5,,3.0,3.25,10.064
26-11-2024 14:00,1.5,,,1.5,10.064
26-11-2024 15:00,0.5,,,0.5,10.064
26-11-2024 21:00,1.5,,,1.5,10.065
26-11-2024 22:00,2.0,,4.5,3.25,10.064
26-12-2022 02:00,1.0,,,1.0,0.062
26-12-2022 03:00,,,0.5,0.5,0.061
26-12-2022 14:00,0.5,,,0.5,0.051
26-12-2024 02:00,1.0,,1.0,1.0,10.063
26-12-2024 03:00,2.0,,2.5,2.25,10.064
26-12-2024 04:00,4.0,,4.0,4.0,10.063
26-12-2024 05:00,1.5,,5.0,3.25,10.063
26-12-2024 06:00,,,0.5,0.5,10.063
26-12-2024 07:00,,0.5,,0.5,10.062
26-12-2024 08:00,1.0,,,1.0,10.062
26-12-2024 10:00,,2.0,,2.0,10.062
26-12-2024 11:00,,14.0,,14.0,10.063
26-12-2024 23:00,1.0,,0.5,0.75,10.064
27-03-2025 00:00,,0.5,,0.5,10.064
27-08-2022 02:00,,0.5,,0.5,0.925
27-08-2022 04:00,,0.5,,0.5,0.831
27-08-2022 06:00,,0.5,,0.5,0.82
27-08-2022 08:00,,0.5,,0.5,0.804
27-08-2022 10:00,,0.5,,0.5,0.801
27-08-2022 11:00,,0.5,,0.5,1.002
27-08-2022 13:00,,0.5,,0.5,0.784
27-08-2022 14:00,,0.5,,0.5,0.78
27-08-2022 16:00,,0.5,,0.5,0.767
27-08-2022 17:00,,0.5,,0.5,0.761
27-08-2022 18:00,,1.0,,1.0,0.754
27-08-2022 19:00,,0.5,,0.5,0.744
27-08-2022 20:00,,0.5,,0.5,0.73
27-08-2022 21:00,,1.0,1.5,1.25,0.789
27-08-2022 22:00,,1.5,,1.5,0.822
27-08-2022 23:00,,1.0,0.5,0.75,0.843
27-08-2025 22:00,,0.5,,0.5,3.25
27-09-2024 15:00,,1.0,,1.0,10.064
27-09-2025 06:00,,,0.5,0.5,3.292
27-10-2022 08:00,1.5,,3.5,2.5,0.104
27-10-2022 09:00,,,0.5,0.5,0.21
27-10-2022 10:00,2.0,2.5,,2.25,0.154
27-10-2022 11:00,2.0,1.0,3.0,2.0,0.087
27-10-2022 14:00,,4.0,,4.0,0.213
27-10-2022 15:00,,0.5,,0.5,0.208
27-10-2022 19:00,1.0,,,1.0,0.204
27-10-2025 05:00,0.5,,0.5,0.5,3.25
27-10-2025 06:00,0.5,,,0.5,3.25
27-10-2025 07:00,0.5,,0.5,0.5,3.25
27-10-2025 08:00,0.5,0.5,0.5,0.5,3.25
27-10-2025 09:00,2.5,2.5,2.0,2.3333333333333335,3.25
27-10-2025 10:00,1.0,0.5,1.0,0.8333333333333334,3.25
27-10-2025 11:00,0.5,0.5,,0.5,3.25
27-10-2025 12:00,3.0,1.5,2.0,2.1666666666666665,3.25
27-10-2025 13:00,1.5,1.0,2.0,1.5,3.25
27-10-2025 14:00,,0.5,,0.5,3.25
27-10-2025 15:00,0.5,0.5,,0.5,3.25
27-10-2025 17:00,,0.5,0.5,0.5,3.25
27-10-2025 18:00,1.0,0.5,,0.75,3.25
27-10-2025 19:00,1.0,2.0,1.5,1.5,3.25
27-10-2025 20:00,3.0,2.5,2.0,2.5,3.25
27-10-2025 21:00,3.0,0.5,3.5,2.3333333333333335,3.25
27-10-2025 22:00,2.5,2.5,2.5,2.5,3.25
27-10-2025 23:00,5.0,3.5,4.0,4.166666666666667,3.25
27-11-2024 00:00,,5.5,,5.5,10.065
27-12-2022 15:00,1.0,,,1.0,0.067
27-12-2024 00:00,,,0.5,0.5,10.064
27-12-2024 01:00,1.0,,,1.0,10.064
27-12-2024 02:00,15.5,0.5,5.5,7.166666666666667,10.063
27-12-2024 03:00,8.5,1.0,19.0,9.5,10.064
27-12-2024 04:00,1.0,,6.0,3.5,10.064
27-12-2024 06:00,3.0,,,3.0,10.063
27-12-2024 09:00,,1.5,,1.5,10.064
27-12-2024 19:00,,6.0,,6.0,10.064
27-12-2024 20:00,,2.0,,2.0,10.064
27-12-2024 21:00,,1.0,,1.0,10.064
27-12-2024 22:00,,3.5,,3.5,10.064
28-08-2022 00:00,,0.5,,0.5,0.837
28-08-2022 01:00,,1.0,,1.0,0.855
28-08-2022 02:00,,0.5,,0.5,0.863
28-08-2022 03:00,,1.0,,1.0,0.864
28-08-2022 04:00,,0.5,,0.5,0.859
28-08-2022 05:00,,0.5,,0.5,0.855
28-08-2022 06:00,,0.5,,0.5,0.851
28-08-2022 08:00,,0.5,,0.5,0.851
28-08-2022 09:00,,0.5,,0.5,0.852
28-08-2022 10:00,,0.5,,0.5,0.848
28-08-2022 11:00,,1.0,,1.0,0.844
28-08-2022 12:00,,0.5,,0.5,0.84
28-08-2022 13:00,,0.5,,0.5,0.817
28-08-2022 14:00,,0.5,,0.5,0.976
28-08-2022 15:00,,0.5,,0.5,1.049
28-08-2022 16:00,,0.5,,0.5,1.037
28-08-2022 17:00,,0.5,,0.5,0.839
28-08-2022 18:00,,0.5,,0.5,0.856
28-08-2022 19:00,,0.5,,0.5,0.875
28-08-2022 20:00,,0.5,,0.5,0.887
28-08-2022 21:00,,0.5,,0.5,0.894
28-08-2022 22:00,,0.5,,0.5,0.899
28-08-2022 23:00,,0.5,,0.5,0.903
28-08-2024 05:00,0.5,,0.5,0.5,10.065
28-08-2024 06:00,0.5,,0.5,0.5,10.064
28-08-2024 08:00,,,0.5,0.5,10.065
28-08-2025 01:00,,2.0,,2.0,3.25
28-09-2022 07:00,,,0.5,0.5,0.007
28-10-2025 02:00,4.0,5.0,3.5,4.166666666666667,3.25
28-10-2025 03:00,2.5,4.0,1.5,2.6666666666666665,3.25
28-10-2025 04:00,3.5,2.0,2.5,2.6666666666666665,3.25
28-10-2025 05:00,1.5,,1.0,1.25,3.25
28-10-2025 06:00,1.5,,2.0,1.75,3.25
28-10-2025 07:00,1.5,,1.5,1.5,3.25
28-10-2025 08:00,2.5,,2.5,2.5,3.25
28-10-2025 09:00,2.0,,3.5,2.75,3.25
28-10-2025 10:00,1.5,,0.5,1.0,3.25
28-10-2025 11:00,1.0,,1.0,1.0,3.25
28-10-2025 12:00,,,1.5,1.5,3.25
28-10-2025 13:00,,,1.0,1.0,3.25
28-10-2025 15:00,,,0.5,0.5,3.25
28-10-2025 17:00,,,0.5,0.5,3.25
28-11-2024 09:00,,0.5,,0.5,10.065
29-08-2022 01:00,,0.5,,0.5,0.901
29-08-2022 02:00,,0.5,,0.5,0.897
29-08-2022 03:00,,0.5,,0.5,0.89
29-08-2022 05:00,,0.5,,0.5,0.874
29-08-2022 06:00,,0.5,1.5,1.0,0.864
29-08-2022 07:00,,,4.0,4.0,0.858
29-08-2022 08:00,,0.5,1.0,0.75,0.851
29-08-2022 13:00,,0.5,,0.5,0.821
29-08-2022 20:00,,0.5,,0.5,0.799
29-09-2025 02:00,,20.0,,20.0,3.281
29-09-2025 03:00,,1.0,,1.0,3.281
29-09-2025 04:00,,1.0,,1.0,3.285
29-09-2025 05:00,,0.5,,0.5,3.284
29-09-2025 06:00,,0.5,,0.5,3.281
29-10-2022 00:00,,,0.5,0.5,0.223
29-10-2024 18:00,0.5,,6.5,3.5,10.064
29-11-2024 00:00,3.5,1.0,3.0,2.5,10.065
29-11-2024 01:00,7.5,,7.0,7.25,10.064
29-11-2024 02:00,,,12.0,12.0,10.065
29-11-2024 03:00,19.5,0.5,11.0,10.333333333333334,10.064
29-11-2024 04:00,,,7.0,7.0,10.064
29-11-2024 05:00,5.5,,,5.5,10.065
29-11-2024 06:00,,2.0,1.5,1.75,10.064
29-11-2024 09:00,1.0,,1.0,1.0,10.065
29-11-2024 13:00,2.0,,1.0,1.5,10.065
29-11-2024 14:00,,,1.0,1.0,10.065
29-11-2024 15:00,0.5,,0.5,0.5,10.065
29-11-2024 20:00,4.0,8.0,,6.0,10.065
29-11-2024 21:00,2.0,,,2.0,10.064
29-11-2024 22:00,0.5,,0.5,0.5,10.065
29-12-2023 00:00,,,0.5,0.5,10.063
29-12-2024 11:00,,0.5,,0.5,10.064
29-12-2024 12:00,,15.0,,15.0,10.064
29-12-2024 13:00,,22.5,,22.5,10.064
29-12-2024 14:00,,9.5,,9.5,10.063
29-12-2024 15:00,,1.0,,1.0,10.064
29-12-2024 16:00,,1.0,,1.0,10.064
29-12-2024 17:00,,1.5,,1.5,10.065
29-12-2024 18:00,,1.5,,1.5,10.064
29-12-2024 21:00,0.5,,,0.5,10.064
30-01-2023 08:00,,,1.0,1.0,0.051
30-07-2024 21:00,15.5,,7.5,11.5,10.064
30-07-2024 23:00,0.5,,0.5,0.5,10.064
30-08-2022 00:00,,0.5,,0.5,0.791
30-08-2022 06:00,,0.5,,0.5,0.775
30-08-2022 10:00,,0.5,,0.5,0.762
30-08-2022 14:00,,0.5,,0.5,0.749
30-08-2022 17:00,,0.5,,0.5,0.731
30-08-2022 22:00,,0.5,,0.5,0.701
30-08-2024 21:00,17.0,,16.0,16.5,10.064
30-08-2024 22:00,3.0,,3.0,3.0,10.064
30-08-2024 23:00,1.0,,0.5,0.75,10.065
30-09-2025 03:00,7.5,,1.5,4.5,3.25
30-09-2025 04:00,1.5,,1.0,1.25,3.257
30-09-2025 05:00,0.5,,0.5,0.5,3.267
30-09-2025 06:00,0.5,,0.5,0.5,3.257
30-09-2025 07:00,,,0.5,0.5,3.266
30-10-2022 03:00,,,0.5,0.5,0.132
30-10-2022 10:00,,0.5,,0.5,0.087
30-10-2024 13:00,,26.0,1.5,13.75,10.065
30-10-2024 14:00,6.0,30.0,0.5,12.166666666666666,10.064
30-10-2024 15:00,,,0.5,0.5,10.064
30-11-2024 10:00,18.5,1.0,26.5,15.333333333333334,10.055
30-11-2024 11:00,2.0,,6.0,4.0,10.061
30-11-2024 12:00,2.0,,4.5,3.25,10.064
30-11-2024 13:00,17.0,,14.0,15.5,10.04
30-11-2025 00:00,2.5,,3.0,2.75,3.25
30-11-2025 04:00,,,1.5,1.5,3.25
30-11-2025 06:00,,,0.5,0.5,3.25
30-11-2025 08:00,0.5,,0.5,0.5,3.25
30-11-2025 10:00,,,0.5,0.5,3.25
30-11-2025 21:00,1.5,,,1.5,3.25
30-12-2021 13:00,13.0,,14.0,13.5,0.562
30-12-2021 14:00,2.5,,,2.5,0.562
30-12-2021 16:00,42.0,,31.5,36.75,0.55
30-12-2021 17:00,62.0,,8.0,35.0,0.626
30-12-2021 18:00,60.0,,34.0,47.0,0.893
30-12-2021 19:00,23.0,,16.5,19.75,1.366
30-12-2021 20:00,7.5,,22.0,14.75,1.565
30-12-2021 21:00,1.0,,4.5,2.75,1.667
30-12-2021 22:00,3.5,,1.0,2.25,1.726
30-12-2021 23:00,2.5,,3.0,2.75,1.775
30-12-2023 08:00,,,0.5,0.5,10.058
30-12-2024 00:00,0.5,,1.5,1.0,10.064
30-12-2024 01:00,0.5,,,0.5,10.064
30-12-2024 02:00,,1.5,,1.5,10.064
30-12-2024 03:00,,5.0,,5.0,10.064
30-12-2024 04:00,,3.0,,3.0,10.065
30-12-2024 05:00,,2.5,,2.5,10.064
30-12-2024 06:00,,3.0,,3.0,10.064
30-12-2024 07:00,,12.0,,12.0,10.064
30-12-2024 08:00,,1.0,,1.0,10.064
30-12-2024 10:00,,1.0,,1.0,10.064
31-01-2023 11:00,,6.0,,6.0,0.071
31-08-2022 02:00,,0.5,,0.5,0.665
31-08-2022 09:00,,0.5,,0.5,0.568
31-08-2022 14:00,,0.5,,0.5,0.473
31-08-2022 15:00,,,3.0,3.0,0.454
31-08-2022 20:00,,0.5,,0.5,0.348
31-08-2024 00:00,0.5,,,0.5,10.064
31-08-2024 03:00,,,0.5,0.5,10.065
31-10-2022 01:00,1.5,,,1.5,0.159
31-10-2022 06:00,,,1.5,1.5,0.181
31-10-2022 07:00,,,6.0,6.0,0.115
31-10-2022 19:00,,,4.0,4.0,0.096
31-10-2022 20:00,,94.0,1.0,47.5,0.172
31-10-2022 21:00,,,6.0,6.0,0.095
31-10-2022 22:00,,,1.0,1.0,0.022
31-10-2022 23:00,,,2.0,2.0,0.159
31-12-2021 03:00,,,1.5,1.5,2.213
31-12-2021 04:00,,,0.5,0.5,2.25
31-12-2021 16:00,12.5,,14.5,13.5,2.354
31-12-2021 17:00,1.0,,,1.0,2.35
31-12-2021 18:00,0.5,,2.5,1.5,2.337
31-12-2021 19:00,,,0.5,0.5,2.317
31-12-2021 20:00,0.5,,,0.5,2.302
31-12-2023 04:00,,,0.5,0.5,10.062
31-12-2024 02:00,,22.5,,22.5,10.064
31-12-2024 03:00,,3.0,,3.0,10.064
31-12-2024 06:00,,2.0,,2.0,10.064
31-12-2024 07:00,,1.5,,1.5,10.064
31-12-2024 08:00,,2.5,,2.5,10.064
31-12-2024 09:00,,1.0,,1.0,10.065
31-12-2024 10:00,,38.0,,38.0,10.064
31-12-2024 11:00,,0.5,,0.5,10.064
